-3.066921408056879628e+01,-2.020176385041996525e+01,1.046745023022113052e+01,2.598683779286857742e+01,-2.000075935090634616e+01,-5.438049619409683899e+00,2.110721580175441403e+01,3.004678872123553290e+01,9.899507866079058971e+00,-1.828218569380667091e+01,-4.181138402262038767e+01,-2.390834725566834607e+01
-4.285473005846505146e+01,-3.799874629309027796e+01,4.855983765447768441e+00,4.157703441801747601e+01,-2.344696618317160031e+01,-1.779528438473707652e+01,1.536588393496764660e+01,2.319833167740063118e+01,-5.116354469872261834e-01,-3.034638943220588914e+01,-4.902807761665003738e+01,-4.471039871125981335e+01
-5.567850491982630246e+01,-5.497064023617693351e+01,7.078646837230635480e-01,5.698050894359662522e+01,-2.789358102029087050e+01,-2.883245437585947712e+01,1.019731629263223027e+01,1.806019059814550687e+01,-9.392154664269428466e+00,-4.132953873667674571e+01,-5.577794265527118966e+01,-6.023152142458774705e+01
-6.795148238014266440e+01,-6.942868793623699730e+01,-1.477205556019925314e+00,7.068845434424136442e+01,-3.301375288285387910e+01,-3.738498928063332727e+01,6.237820955248099430e+00,1.593047990193763219e+01,-1.526491799741565991e+01,-4.975191294459571623e+01,-6.129720206102845736e+01,-6.762044070649028527e+01
-7.680927938712657976e+01,-7.916809913989796144e+01,-2.358819752696225791e+00,8.015141661797778738e+01,-3.710189572752724274e+01,-4.273380453738518980e+01,4.021019365084289809e+00,1.729655690527525636e+01,-1.711375502294156803e+01,-5.410141985693137912e+01,-6.465738207764691481e+01,-6.701313985931875550e+01
-7.954496898045420039e+01,-8.244430598820487432e+01,-2.899337007674780864e+00,8.316342230599671836e+01,-3.835653982424141617e+01,-4.460274354074847736e+01,3.886304949819271215e+00,2.175950948558383757e+01,-1.468941155205190618e+01,-5.351202802066431019e+01,-6.510805312770499143e+01,-6.108427937036373123e+01
-7.517425776762422629e+01,-7.860407886890796192e+01,-3.429821101207166656e+00,7.892366620412248324e+01,-3.611657531203786675e+01,-4.294482984191274966e+01,6.008793479794989345e+00,2.836645590490012836e+01,-8.473015134775465640e+00,-4.801449216345839233e+01,-6.227834069287649754e+01,-5.380659829976774233e+01
-6.433720940820278145e+01,-6.825329982563596332e+01,-3.916090417356058673e+00,6.808497744112901273e+01,-3.071147163080998865e+01,-3.812183364955974696e+01,1.024849372764568045e+01,3.594276620465213767e+01,3.111433641884662205e-01,-3.850168657333068722e+01,-5.637039727513339216e+01,-4.828006339077192166e+01
-4.873672250641533310e+01,-5.341581151814062167e+01,-4.679089011647699081e+00,5.256408358253255386e+01,-2.283074083138517807e+01,-3.130522004897358102e+01,1.594187048577890486e+01,4.324090631625171000e+01,9.752275253623881923e+00,-2.673701674999693267e+01,-4.843755301858342222e+01,-4.509599301704461993e+01
-3.156543741505080547e+01,-3.767285879232318280e+01,-6.107421377194356182e+00,3.581377590772555664e+01,-1.383673278654808314e+01,-2.440601417681724783e+01,2.199462872209700492e+01,4.915443919946179818e+01,1.780413257557164997e+01,-1.507823101541445787e+01,-4.034387950252003918e+01,-4.275907476849341293e+01
-1.729126244634634446e+01,-2.529715600729092628e+01,-8.005893560866125469e+00,2.227701677239206290e+01,-5.969490366823912098e+00,-1.937882709184151508e+01,2.730813981299806414e+01,5.311736571060401957e+01,2.307095779474574115e+01,-5.646124274397418041e+00,-3.409643342111023401e+01,-3.981092143655383353e+01
-9.581695481693770944e+00,-1.925146466517117005e+01,-9.669769183398473800e+00,1.532482072945710172e+01,-1.327062018501728557e+00,-1.730117501912980771e+01,3.126621581742069012e+01,5.545162142839380692e+01,2.536978094280093288e+01,5.020968764111189975e-01,-3.088856981265564627e+01,-3.639833034731377381e+01
-9.332145719347503032e+00,-1.960465045097502923e+01,-1.027250473154807864e+01,1.544722922756974981e+01,-7.337410118658193037e-01,-1.777167333971416596e+01,3.400527253634424341e+01,5.737068312419596339e+01,2.588493191127964366e+01,3.675610610642108256e+00,-3.046058695352343904e+01,-3.375523896673321644e+01
-1.444754432195682270e+01,-2.360293330051997174e+01,-9.155388978483131268e+00,2.016991992480889095e+01,-3.499956119172948465e+00,-1.907893627913778545e+01,3.631832439565207693e+01,6.053835709275066534e+01,2.666042393779255804e+01,5.389524476659141250e+00,-3.118664208032371832e+01,-3.250743082432146736e+01
-2.139424857522790901e+01,-2.754871838203154510e+01,-6.154469806722999259e+00,2.578096529187657993e+01,-8.034107950176380797e+00,-1.930476659556605057e+01,3.908581543522579693e+01,6.614769487716439755e+01,2.940285230960424201e+01,7.554030148942482370e+00,-3.107476481826014592e+01,-3.189103469903687227e+01
-2.785177880950834961e+01,-2.963475745543903628e+01,-1.782978645849384147e+00,3.012746897243125233e+01,-1.304249705692917871e+01,-1.784514942862708864e+01,4.248303632795882123e+01,7.386448175647650771e+01,3.431236955276962419e+01,1.110259827411694467e+01,-2.916130242113332116e+01,-3.079308684386742812e+01
-3.432580428927194305e+01,-3.133674634839642437e+01,2.989057940957532189e+00,3.418813110139770117e+01,-1.838597838880841806e+01,-1.600274768181137119e+01,4.574680388556027566e+01,8.169874332304250686e+01,3.992444013965923943e+01,1.529733707653216435e+01,-2.603601904425341118e+01,-2.920893655977874559e+01
-4.255675928094223082e+01,-3.542189981874815885e+01,7.134859462276826214e+00,4.027372153338610872e+01,-2.445563744862903377e+01,-1.575322283038811477e+01,4.789374266155378734e+01,8.734332670459836834e+01,4.424805907831894558e+01,1.858057859202530437e+01,-2.297308091741644631e+01,-2.835809251779048878e+01
-5.196434947937290616e+01,-4.236221952287952774e+01,9.602129956576902714e+00,4.838827146465302320e+01,-3.042176852116752528e+01,-1.788088263390724109e+01,4.859990631590859067e+01,8.978527424306393812e+01,4.622662045625043703e+01,2.000585634666730783e+01,-2.071785184364671650e+01,-2.951696195866284711e+01
-5.830112691777035394e+01,-4.905208289130819566e+01,9.249044026546489050e+00,5.490116561525936589e+01,-3.354211358766360007e+01,-2.137433973351053851e+01,4.833245676732782670e+01,8.978071034543489759e+01,4.625300497278885103e+01,1.986916972380201329e+01,-1.912667720562343376e+01,-3.273548043836746757e+01
-5.667954486755909471e+01,-5.111877395849505490e+01,5.560770909149198360e+00,5.523481603585706523e+01,-3.104999060446277070e+01,-2.426939768020334043e+01,4.789116394535938070e+01,8.923725850348029098e+01,4.565309926472463076e+01,1.936900222654009696e+01,-1.760376546067068659e+01,-3.657349052658866384e+01
-4.599591637300785152e+01,-4.653271183334713612e+01,-5.367954602533075992e-01,4.784439542473656815e+01,-2.281285608422293265e+01,-2.506836869646207688e+01,4.786771099862112067e+01,9.012340577637053229e+01,4.578950075750218218e+01,1.971463548661918352e+01,-1.569486931220952286e+01,-3.946248642684427210e+01
-3.003521609402710268e+01,-3.715203339284711603e+01,-7.116817298733241870e+00,3.549522104100370257e+01,-1.168285860794027542e+01,-2.373087731111872856e+01,4.833575908991780068e+01,9.349805736225495423e+01,4.739527465086163716e+01,2.133902308791515168e+01,-1.340030885167792363e+01,-4.127271748602820622e+01
-1.447679249284453817e+01,-2.699741884790418567e+01,-1.252062635497209442e+01,2.292900571548658206e+01,-1.332045634362687414e+00,-2.144072682933012075e+01,4.899258502163844753e+01,9.930459722530940780e+01,5.049730966794398057e+01,2.396298567276610925e+01,-1.100439839437727407e+01,-4.294072381056556509e+01
-3.220613808605826911e+00,-1.941455098220564324e+01,-1.619393717351149675e+01,1.367883991804453814e+01,6.018291333798528875e+00,-1.959740848909516941e+01,4.953697589687259750e+01,1.067961661938016249e+02,5.469057820081076216e+01,2.726188244970386521e+01,-8.663519770924574814e+00,-4.492156583000032555e+01
3.033964212733618382e+00,-1.555229775828307837e+01,-1.858626197092763377e+01,8.637456546428373017e+00,1.023897415552035639e+01,-1.899458279726298926e+01,4.989491179671513521e+01,1.149432477180039172e+02,5.941218835312038493e+01,3.126277696393695749e+01,-6.178573212207978393e+00,-4.671059797361497345e+01
6.083438861824919996e+00,-1.445925088095854960e+01,-2.054268974269368186e+01,6.457332360897885870e+00,1.263292588770756986e+01,-1.955172742888009196e+01,5.017836675787513911e+01,1.227116579857431589e+02,6.410846612847171855e+01,3.618350410159279562e+01,-3.148141037359961203e+00,-4.758306699305723697e+01
8.600360248968033972e+00,-1.420664304854039806e+01,-2.280700329741791776e+01,4.901062130372350722e+00,1.488945268827693980e+01,-2.063037557039632119e+01,5.051981883876369750e+01,1.293690594868392054e+02,6.827857985997675883e+01,4.198527356577652370e+01,6.513181047186318295e-01,-4.720479461541822985e+01
1.227292989676656276e+01,-1.324001165270598790e+01,-2.551294154938129566e+01,2.404550283419654377e+00,1.791303905509796834e+01,-2.149374019568224981e+01,5.107818054401733576e+01,1.347460730145429579e+02,7.161627350264762981e+01,4.814004124839390641e+01,5.102088295676871610e+00,-4.568926166153681123e+01
1.682730276070509490e+01,-1.088958401589389346e+01,-2.771688677650697841e+01,-1.198133932805859114e+00,2.111607168683103097e+01,-2.135429387697721992e+01,5.223436640985752177e+01,1.393814896201589875e+02,7.436001759444631887e+01,5.396219630833704883e+01,1.001625306593621545e+01,-4.352860861962069805e+01
2.116771516457791336e+01,-6.810077950989435358e+00,-2.797779311547456516e+01,-5.492382270714812442e+00,2.327914819755380904e+01,-1.934921835925432276e+01,5.455062079529714936e+01,1.444611169116822111e+02,7.739950663114861129e+01,5.917655615192178686e+01,1.547298448042710817e+01,-4.139101303828464751e+01
2.566356524276702800e+01,-4.160027137439290534e-01,-2.607956795641738168e+01,-1.091272124776335595e+01,2.452236699679331977e+01,-1.509054198057454776e+01,5.829050951097950417e+01,1.512985596408845481e+02,8.174306972831770679e+01,6.403314316471835355e+01,2.165925768302155063e+01,-4.000866578635421433e+01
3.241572889776750088e+01,8.623276951560924886e+00,-2.379245194611218395e+01,-1.868901090421581301e+01,2.678194888603861301e+01,-9.318468443376492161e+00,6.299875606482932255e+01,1.605618078933536879e+02,8.784632640842127671e+01,6.889179865217560916e+01,2.838105449364837796e+01,-4.015768298107561662e+01
4.245567972243448196e+01,1.929347059806052656e+01,-2.316220912427872491e+01,-2.890352373540338604e+01,3.156064747867364417e+01,-3.600934722130597621e+00,6.770122912776756152e+01,1.719801775440974438e+02,9.552969526195489891e+01,7.390396195989589501e+01,3.504893734473628797e+01,-4.186157964732377934e+01
5.349875679545465346e+01,2.910454869889538898e+01,-2.439420809646319555e+01,-3.922853674457507367e+01,3.779566077518394707e+01,6.835490150491319028e-01,7.146411247565616520e+01,1.846112433747333057e+02,1.042764487363148760e+02,7.903805444139571534e+01,4.115995231894020634e+01,-4.354664431008001202e+01
6.135759716396973573e+01,3.530131219607667958e+01,-2.605628496779614878e+01,-4.620088518138665279e+01,4.269361747540239804e+01,2.861893989243519343e+00,7.365451993021639510e+01,1.970857794551104973e+02,1.133502926149038217e+02,8.413388231687325458e+01,4.651595275093217197e+01,-4.275280417024699631e+01
6.312344829050324790e+01,3.625093656484688154e+01,-2.687251172555862055e+01,-4.755066517116203784e+01,4.417380884628848037e+01,2.765494446379118898e+00,7.391975189633004106e+01,2.078828489867029532e+02,1.218132087678780948e+02,8.888691909186893270e+01,5.102009890582792906e+01,-3.776371767639106736e+01
5.875936136911186480e+01,3.202433191311212823e+01,-2.673502945590115232e+01,-4.332824135465869375e+01,4.212239362214241822e+01,5.247702316526161592e-01,7.228444078338262102e+01,2.159618464126479296e+02,1.287525157438971917e+02,9.284674310146975529e+01,5.451513671097402636e+01,-2.859735115626264346e+01
5.028932925021361910e+01,2.407738877909788044e+01,-2.621194047101634084e+01,-3.530592502856050885e+01,3.777301174116328752e+01,-3.344976623180791364e+00,6.933116856357867164e+01,2.213784588237762705e+02,1.337041538392717825e+02,9.562736285573571138e+01,5.694853660990169431e+01,-1.698057105395290733e+01
3.992764480819092654e+01,1.454040982384833214e+01,-2.538723498424241143e+01,-2.564518216120172056e+01,3.225679966101689899e+01,-7.751079232551147058e+00,6.621892776274935954e+01,2.253948140596162375e+02,1.370124277010957030e+02,9.742959257342999990e+01,5.873841017150073895e+01,-5.636971945576494392e+00
2.910025554080447918e+01,5.599995038427948657e+00,-2.350026050227555885e+01,-1.611266805176550676e+01,2.593489056537361748e+01,-1.118858315056201214e+01,6.431048203884884629e+01,2.299384823836053044e+02,1.397234760321061913e+02,9.915669206829720395e+01,6.076080338453345320e+01,2.854622949961617806e+00
1.923996171855480242e+01,-9.839415589491266045e-01,-2.022390327740216165e+01,-8.258121495938860690e+00,1.939218187306910224e+01,-1.263321498219454497e+01,6.440770602332504779e+01,2.365745051068188616e+02,1.429496079599427958e+02,1.015995139061664929e+02,6.365050873460128145e+01,7.385993057516575533e+00
1.243387882529878929e+01,-4.231628375132412856e+00,-1.666550720032861577e+01,-3.560374249505161348e+00,1.423933834906665474e+01,-1.220959508420901329e+01,6.635647911962144008e+01,2.458407801540136006e+02,1.474255829609551540e+02,1.048681997578675862e+02,6.732392026709297284e+01,9.029340644891572509e+00
1.014273200853827106e+01,-4.003955303222279660e+00,-1.414668731165712146e+01,-2.771013780929206138e+00,1.185894837803882673e+01,-1.057960282562988397e+01,6.952154049514273026e+01,2.575478937946157316e+02,1.536611330992102751e+02,1.090121354075285893e+02,7.147861257941684698e+01,1.034576796333146476e+01
1.235771832036102857e+01,-7.070979927525586906e-01,-1.306481631300929713e+01,-5.658499766142103482e+00,1.241239999713011066e+01,-8.199349941014297372e+00,7.329188560690170107e+01,2.712070528859979959e+02,1.620069050742993397e+02,1.145549384333653933e+02,7.615502544265024198e+01,1.361919160015096608e+01
1.877485227687083125e+01,5.092891033490754005e+00,-1.368196124327491958e+01,-1.178081016384078161e+01,1.583787905960685372e+01,-5.511205203437010702e+00,7.705779160075724121e+01,2.859513779029245484e+02,1.723436150920952343e+02,1.220130601321584152e+02,8.156385931591097460e+01,1.927635283861853921e+01
2.950253671357906171e+01,1.289949102594027153e+01,-1.660304568753277010e+01,-2.094103702843461079e+01,2.248068350314111186e+01,-3.053097767152507913e+00,8.025415920314652851e+01,3.006017353561135224e+02,1.839707647563370472e+02,1.313955845255496229e+02,8.781253351384303585e+01,2.616610135600772225e+01
4.429848734184185588e+01,2.237164788415662287e+01,-2.192683945757838160e+01,-3.284837060315315682e+01,3.229815660069341021e+01,-1.001551722060837646e+00,8.263193039193748746e+01,3.140980640318741166e+02,1.958801424601184067e+02,1.422895642712610140e+02,9.495491696158732964e+01,3.353387111667456821e+01
6.169424433648198658e+01,3.305047837443738956e+01,-2.864376596193696756e+01,-4.655604834908592693e+01,4.410582759349653514e+01,9.560114887542685569e-01,8.424005382399028008e+01,3.257681966871443251e+02,2.070757839493552126e+02,1.539969923273633299e+02,1.029210673504077960e+02,4.161691358740792168e+01
7.885109190945922819e+01,4.384820918761221975e+01,-3.500288272173864357e+01,-6.014150288418458246e+01,5.567867339381323433e+01,3.166498563200050409e+00,8.514615219522649170e+01,3.353985710231690973e+02,2.167639111711322926e+02,1.655280656911609753e+02,1.112930264422668074e+02,5.004458008792077095e+01
9.264539344377885755e+01,5.327338999768434036e+01,-3.937200344598548440e+01,-7.134590485443349905e+01,6.469682036544718073e+01,5.695987909500696666e+00,8.540386461612071400e+01,3.433722885885634355e+02,2.245733715305622411e+02,1.758890093464165716e+02,1.194766614907636324e+02,5.719119674505954265e+01
1.015899250421339559e+02,6.059335214364086397e+01,-4.099657289838347651e+01,-7.910650099145586012e+01,7.005256045288707867e+01,8.533586903645456800e+00,8.526179125607106357e+01,3.506904934861145762e+02,2.308113887154576389e+02,1.846529021199222029e+02,1.271711890221717738e+02,6.148829643831290070e+01
1.068536405032403707e+02,6.650015670187480055e+01,-4.035348380125545020e+01,-8.440794620891460909e+01,7.252692820361323811e+01,1.176612330517310845e+01,8.513274106460301027e+01,3.585377177051017270e+02,2.363489747507842083e+02,1.920912070954644548e+02,1.344437115363944031e+02,6.277256947799394737e+01
1.110871965754040218e+02,7.212769174584472864e+01,-3.895950482944871851e+01,-8.919150056869366949e+01,7.411861250338915852e+01,1.521875056391185765e+01,8.526557628232448849e+01,3.675104058960498037e+02,2.420118175915788470e+02,1.986396035901560992e+02,1.413702874236298044e+02,6.262670190090936018e+01
1.160624824264910728e+02,7.749952865512193512e+01,-3.856295377125807278e+01,-9.437746629488941608e+01,7.651382315469412276e+01,1.807082980696585395e+01,8.555870101086152602e+01,3.771581549671467428e+02,2.480830619525154646e+02,2.044630345384953500e+02,1.478538234714174280e+02,6.337798545625734903e+01
1.215049337624467967e+02,8.136781918016487225e+01,-4.013711458217024841e+01,-9.919949907617959184e+01,8.006828272931117851e+01,1.921702272747134188e+01,8.573166482794704280e+01,3.863646378745253287e+02,2.544557517254844186e+02,2.097285696690758243e+02,1.538865788874163059e+02,6.654165979497325623e+01
1.258306477153061138e+02,8.238583508535826638e+01,-4.344481262983543957e+01,-1.021592805223778839e+02,8.394648463146737072e+01,1.807519810701837315e+01,8.555762928769271980e+01,3.941296110393503795e+02,2.610315240961020891e+02,2.150224923708487097e+02,1.598215472459809234e+02,7.237587803648493434e+01
1.277133384090050043e+02,8.015337461758907978e+01,-4.755996379130269247e+01,-1.023342497851759560e+02,8.707375105744499422e+01,1.491702240246443623e+01,8.484166588808685106e+01,3.999296622059129618e+02,2.677239059991061936e+02,2.210414308410415458e+02,1.662067169708641927e+02,8.034911773898502929e+01
1.274908543336362214e+02,7.564897681694752407e+01,-5.184187751657462684e+01,-1.003201573571242307e+02,8.926734374016983509e+01,1.059680005275761516e+01,8.333560020979416549e+01,4.036752153185759653e+02,2.742742699826474109e+02,2.279106251618431429e+02,1.733860033505850708e+02,8.950479768395761937e+01
1.274700074580087090e+02,7.112847940334759755e+01,-5.634152805454624513e+01,-9.834946479362865546e+01,9.162998823533662573e+01,6.227789072908096024e+00,8.087984054107299414e+01,4.057515562834959724e+02,2.803965321816525602e+02,2.351878186647336406e+02,1.813620296053920242e+02,9.859086469760579519e+01
1.307428968670662073e+02,6.935816034175429934e+01,-6.138473652519641632e+01,-9.931543562499585676e+01,9.583624521825849740e+01,2.999361555967752224e+00,7.762458989063325987e+01,4.071178076576725289e+02,2.860709811797317457e+02,2.425389696467912586e+02,1.899918091908903932e+02,1.062794609103083303e+02
1.394006160146923889e+02,7.238647038914533027e+01,-6.701414562543116915e+01,-1.052851330689525469e+02,1.029990876047283024e+02,1.895437218037893334e+00,7.400311797919660250e+01,4.090530643894982177e+02,2.915039005261807006e+02,2.500331541845262109e+02,1.990733945586378013e+02,1.118604900743134323e+02
1.532831091514134982e+02,8.046304397681667808e+01,-7.282006517448071747e+01,-1.163446028863517085e+02,1.129027570608636637e+02,3.237864072219124090e+00,7.040974704106719173e+01,4.125292942473090534e+02,2.968567058620746479e+02,2.577431439161102276e+02,2.082012429906914406e+02,1.158791984818662968e+02
1.701459920694910579e+02,9.194588508938177540e+01,-7.820010697999315141e+01,-1.305872405960545564e+02,1.241271056965984343e+02,6.473806345249928818e+00,6.692014069333585269e+01,4.177086604716673719e+02,3.021361567560597337e+02,2.654621604812620035e+02,2.168502803127504137e+02,1.198614127074529847e+02
1.872172669343968892e+02,1.044725817228485454e+02,-8.274468521143239741e+01,-1.454344909723610613e+02,1.350123411951469166e+02,1.058222052245605838e+01,6.332691311509464072e+01,4.239228873841839231e+02,3.072686569996748176e+02,2.729765881501365925e+02,2.247596790853125981e+02,1.253827983321147741e+02
2.027645514787606373e+02,1.163727704452768563e+02,-8.639178103336833203e+01,-1.591526939453171110e+02,1.445962706564358768e+02,1.473602620028992582e+01,5.934817312606664785e+01,4.300197267692707896e+02,3.122210535872062565e+02,2.804041823081426514e+02,2.321197428204909556e+02,1.332704061180951385e+02
2.164485760930411971e+02,1.270968776516076133e+02,-8.935169844131895900e+01,-1.712914312929285074e+02,1.528156925165542361e+02,1.856024997961526068e+01,5.481948204830239746e+01,4.347626599797027325e+02,3.170029028801366167e+02,2.880706221917884591e+02,2.393137494996254020e+02,1.430185400120677173e+02
2.283953846096404732e+02,1.365158326155581108e+02,-9.187955199396894557e+01,-1.818713102918903814e+02,1.599303715075870116e+02,2.189314533823691278e+01,4.978771962056685396e+01,4.370845189978064127e+02,3.213889200041865024e+02,2.959860186262202433e+02,2.464754034989257150e+02,1.523695633383062216e+02
2.380098347413556041e+02,1.440556121531124916e+02,-9.395422258813130156e+01,-1.903149352266187861e+02,1.657100125272895070e+02,2.450248434709536483e+01,4.441937612967969073e+01,4.363113028534160094e+02,3.247090088227856199e+02,3.035149885495942499e+02,2.533119697607984335e+02,1.583289287388230662e+02
2.438168991367920739e+02,1.486292817055401088e+02,-9.518761743114214369e+01,-1.953120916820152217e+02,1.692353957696649900e+02,2.605747238549734490e+01,3.888919613172495815e+01,4.325220871985969211e+02,3.262057923616108042e+02,3.097559319069208641e+02,2.593884047419404624e+02,1.597230403831208321e+02
2.443730193626934977e+02,1.493014613178588945e+02,-9.507155804472724014e+01,-1.956578420891093231e+02,1.694839531559977388e+02,2.631742522123953876e+01,3.340351679747220714e+01,4.267308602722223441e+02,3.256452179724751090e+02,3.142439596101435768e+02,2.645222990790932727e+02,1.583518570562255547e+02
2.393233124740312405e+02,1.460654006823123723e+02,-9.325791179161433320e+01,-1.912253625098789769e+02,1.660672466191930994e+02,2.542827027980331422e+01,2.814016276048196374e+01,4.204410348124094980e+02,3.234955480216796673e+02,3.171373377170922936e+02,2.688484121440555441e+02,1.574335104652635948e+02
2.300952862857389221e+02,1.402205222332130745e+02,-8.987476405242428257e+01,-1.834782799916128511e+02,1.597521119853793721e+02,2.400315639802938250e+01,2.311965482673289074e+01,4.147900297322348138e+02,3.205889464755801441e+02,3.188590399189634468e+02,2.726010353682485174e+02,1.595918129537501216e+02
2.200551943636009185e+02,1.341605911919170921e+02,-8.589460317158520297e+01,-1.753693570985781776e+02,1.527058730791206358e+02,2.280116725468004901e+01,1.832675527646096469e+01,4.100365096127924858e+02,3.176664748406944909e+02,3.197938107127108083e+02,2.759439460683689163e+02,1.658237701711553314e+02
2.135996649580473274e+02,1.307101094815752447e+02,-8.288955547637631582e+01,-1.705072081002313098e+02,1.479376989603489108e+02,2.245400368136598601e+01,1.397298065325298211e+01,4.057636533499148186e+02,3.151759643266733519e+02,3.203122495294387022e+02,2.790648695524479308e+02,1.749706843910561247e+02
2.141445157482035597e+02,1.321250762594748096e+02,-8.201943948863582534e+01,-1.716583921308502170e+02,1.477730540527650760e+02,2.347378837548931330e+01,1.055432758932494330e+01,4.013942072374151167e+02,3.133553363001887533e+02,3.209469116436139302e+02,2.823785083035612615e+02,1.839836752632006664e+02
2.222874606884587934e+02,1.390154009142252391e+02,-8.327205977414342897e+01,-1.793515898487537470e+02,1.524911116946874472e+02,2.614375937392865268e+01,8.644453990129619569e+00,3.964670798594944472e+02,3.122837222505013983e+02,3.223059435498742573e+02,2.864086354962348082e+02,1.896506845662163698e+02
2.355484579190512875e+02,1.498424885749165583e+02,-8.570596934404746037e+01,-1.915663601651783665e+02,1.603177379923282331e+02,3.017810158089388040e+01,8.449755777961650338e+00,3.905212728883059867e+02,3.116405703792476629e+02,3.245408376547529770e+02,2.912795626489744336e+02,1.906126450191670756e+02
2.498714732602626327e+02,1.615205034293161930e+02,-8.835096983086209832e+01,-2.047671309451056629e+02,1.687114094823747337e+02,3.457184908296686388e+01,9.424230909922117760e+00,3.828755291930977478e+02,3.104771638501250095e+02,3.269649296748319216e+02,2.963222737917949416e+02,1.878684242222853982e+02
2.616033995822563156e+02,1.708840622698905065e+02,-9.071933731228436670e+01,-2.155405434693499558e+02,1.756621754297257496e+02,3.804439430934924360e+01,1.057410180604429861e+01,3.728956914102167843e+02,3.076108624419796342e+02,3.284582947859294109e+02,3.003687826230136579e+02,1.835514314356544219e+02
2.684082262237920418e+02,1.760694464633467362e+02,-9.233877976036662005e+01,-2.217225759417157462e+02,1.798717098724996504e+02,3.992425307932793999e+01,1.125975107596115343e+01,3.606733233586644474e+02,3.024540691081836599e+02,3.282443376580992549e+02,3.025562662883322673e+02,1.791396349799705092e+02
2.691192684004014950e+02,1.769038839929871756e+02,-9.221538440733827713e+01,-2.225824512034623126e+02,1.803158456040197564e+02,4.059757744561758130e+01,1.146036537495324126e+01,3.471493919739323815e+02,2.953277620030156072e+02,3.261835522490570725e+02,3.027238755753207897e+02,1.748357611009236336e+02
2.636485604576030255e+02,1.742141408148868891e+02,-8.943441964264259525e+01,-2.184822827375609506e+02,1.764469731478673111e+02,4.087048856603231428e+01,1.125581467717976025e+01,3.333681621738531362e+02,2.869722057564284228e+02,3.224835580327196567e+02,3.010400529147262318e+02,1.705933379156204239e+02
2.530198354926852176e+02,1.688122365945548040e+02,-8.420759889805938769e+01,-2.103782935492417039e+02,1.687707754140374448e+02,4.097189468697519033e+01,1.038705719258696369e+01,3.196671984358119971e+02,2.779125041075486706e+02,3.173874254222892546e+02,2.975291699567338242e+02,1.668845783008785304e+02
2.387417290814258877e+02,1.610937166841302428e+02,-7.764801239722724802e+01,-1.992574581112765486e+02,1.584992990072813654e+02,4.049564953822358859e+01,8.509504437730400994e+00,3.056025783490769641e+02,2.683012799255753293e+02,3.111356763543014381e+02,2.921376010732921600e+02,1.640424973056069859e+02
2.220793885158512921e+02,1.514188233622268172e+02,-7.066056515355883505e+01,-1.859389318709208681e+02,1.466777154263877492e+02,3.916244463649221075e+01,5.688801079456242249e+00,2.905120706576855127e+02,2.581595597150799790e+02,3.039806375651938879e+02,2.851014781285952040e+02,1.615548546748795218e+02
2.041984067954565205e+02,1.405159213330672401e+02,-6.368248546232644003e+01,-1.713777867514875481e+02,1.341300906661957129e+02,3.717429040155851538e+01,2.450521766995951367e+00,2.740009586686940111e+02,2.474887353294932097e+02,2.961273401563421999e+02,2.770037757706492130e+02,1.584423212407728556e+02
1.865403481256575731e+02,1.294123611710981265e+02,-5.712798695449941278e+01,-1.568346366937115022e+02,1.218513738406687139e+02,3.493690040241384764e+01,-5.937724258436802849e-01,2.560264476109866223e+02,2.361118931190454475e+02,2.876436250029613007e+02,2.684583530980529531e+02,1.541244327197537700e+02
1.704546086318806033e+02,1.191482123339919497e+02,-5.130639629783133415e+01,-1.435327696686593129e+02,1.107414241026363015e+02,3.287188579018762624e+01,-3.081180491735296290e+00,2.368481329195867318e+02,2.236834757647582990e+02,2.784881612394430590e+02,2.598737142078562670e+02,1.486998376250878664e+02
1.564172068934009587e+02,1.105108537205464785e+02,-4.590635317279978267e+01,-1.321182653765378063e+02,1.009211763742146246e+02,3.148542442177260980e+01,-4.840685283410026685e+00,2.171160850270212848e+02,2.101163318875242396e+02,2.688118370271893696e+02,2.515427991398923382e+02,1.424867311569119863e+02
1.439959646467193863e+02,1.038938379840242447e+02,-4.010212666264310144e+01,-1.225525856682934176e+02,9.176644032875675805e+01,3.128076792075619394e+01,-5.619836474954866823e+00,1.978977488996265777e+02,1.959401214017800612e+02,2.590551572415917008e+02,2.437120234877500025e+02,1.358654958431631314e+02
1.329412610771409788e+02,9.936930373197468214e+01,-3.357195734511711294e+01,-1.147045851970195685e+02,8.297336873418362302e+01,3.236704254339247910e+01,-5.093287678029779997e+00,1.803080163849848248e+02,1.820818164334368419e+02,2.495221896167960551e+02,2.363625813517561483e+02,1.293340508994876643e+02
1.240237374271901700e+02,9.676172857697999063e+01,-2.726200885016407582e+01,-1.088478909139764568e+02,7.536534143849635825e+01,3.416499188450060842e+01,-3.114005381524383331e+00,1.650147977423148973e+02,1.693555052056203181e+02,2.401373563992482332e+02,2.291206054503529401e+02,1.228086266705659568e+02
1.182049869517177711e+02,9.547957996565705230e+01,-2.272540698601788378e+01,-1.051872636755088877e+02,7.016704034906865672e+01,3.564626868241905555e+01,1.701962259349021345e-01,1.520605284460963844e+02,1.581892105646170421e+02,2.307971125580501166e+02,2.215679082469269190e+02,1.154158398661596294e+02
1.151359445338599272e+02,9.439890336531280468e+01,-2.073704116850770163e+01,-1.030427091488219418e+02,6.759587955984841301e+01,3.592189982998642961e+01,4.359825762724449660e+00,1.409396458845087921e+02,1.486182700432845536e+02,2.216417497621367545e+02,2.135441830618312054e+02,1.066229187529660436e+02
1.128595945091617239e+02,9.216723659247017508e+01,-2.069235791665562019e+01,-1.008121802019995386e+02,6.641494762088696291e+01,3.465780928555881957e+01,8.887840837501443048e+00,1.307903741761537333e+02,1.403676995586397425e+02,2.128116538425530564e+02,2.051357457364067329e+02,9.707595939767618631e+01
1.087760889609706823e+02,8.769909602848321128e+01,-2.107699293245504535e+01,-9.665715484676096025e+01,6.461929462605078811e+01,3.208854381823400814e+01,1.311626176722452897e+01,1.206434984150862135e+02,1.329152535169725979e+02,2.042166213969842943e+02,1.964677418457017666e+02,8.819106137962513969e+01
1.009944912941373758e+02,8.057997298177315315e+01,-2.041451831233533198e+01,-8.937844756410650859e+01,6.055163920552774925e+01,2.876319641638905722e+01,1.646700122688551104e+01,1.096065812018815535e+02,1.254617574441781471e+02,1.955494575436117088e+02,1.875023759839683350e+02,8.124712539326755234e+01
8.933718534493570473e+01,7.133672538834886723e+01,-1.800045995656152797e+01,-7.909390984274261882e+01,5.373128718444134222e+01,2.531205798215301073e+01,1.864690397785741993e+01,9.710870337699607546e+01,1.170319027200765305e+02,1.862891366488122742e+02,1.780740523442564438e+02,7.704236540885801787e+01
7.540781043344151158e+01,6.137005231210810052e+01,-1.403775812131170930e+01,-6.727414230828159702e+01,4.495859813315598075e+01,2.232239978982727280e+01,1.984935390316963222e+01,8.328542454634860803e+01,1.069167468776271903e+02,1.759571079494380683e+02,1.681301634113220587e+02,7.573629516102414527e+01
6.170432526044632482e+01,5.239790457768924625e+01,-9.306420682738979266e+00,-5.602220832048332966e+01,3.577274292754968599e+01,2.023082752083998415e+01,2.065384514733180410e+01,6.904517157150367268e+01,9.510477967914626163e+01,1.645666799082766829e+02,1.578165701575350397e+02,7.604406832852804143e+01
5.025757915262735054e+01,4.565892303667852303e+01,-4.598656115934356414e+00,-4.698186605203645172e+01,2.754280709817511053e+01,1.924198876412194181e+01,2.160949313205244593e+01,5.556726031942522326e+01,8.228746593660903841e+01,1.525287592983167713e+02,1.473417215034995991e+02,7.517174098755025113e+01
4.177162218367524105e+01,4.140362141826751952e+01,-3.680007653968852543e-01,-4.064416786248507663e+01,2.087874327543042696e+01,1.926495345963682482e+01,2.286368202132145200e+01,4.372776072968435557e+01,6.950601346120392066e+01,1.402166159970730916e+02,1.368764923207336324e+02,7.072285330985302210e+01
3.579691761251701365e+01,3.893664927660714881e+01,3.139731664097326735e+00,-3.644932875967444375e+01,1.578161506274917159e+01,1.984950543724606575e+01,2.416429507344080108e+01,3.385919414726747334e+01,5.771824409863977223e+01,1.279986247691471561e+02,1.265728973516676064e+02,6.263943013198282728e+01
3.122259544907826267e+01,3.701545305767128013e+01,5.792857608596573726e+00,-3.322850596226056297e+01,1.189689903911561508e+01,2.030124743915061458e+01,2.515355995000152944e+01,2.573288889467966811e+01,4.749917405089863820e+01,1.164987441532443597e+02,1.166489888325159967e+02,5.293164336615218701e+01
2.687202460571144513e+01,3.448847611886278486e+01,7.616451513151281105e+00,-2.981808238057924854e+01,8.721612101729848021e+00,2.001629731547219038e+01,2.563121049628371395e+01,1.866337670888680123e+01,3.895699569164174392e+01,1.064341175900783867e+02,1.074847508328917911e+02,4.378093496966147313e+01
2.234686366897665266e+01,3.093406551164412832e+01,8.587201842663819917e+00,-2.579894565966574405e+01,6.085875148469537699e+00,1.872534152904524518e+01,2.560995648091642707e+01,1.175239448290536970e+01,3.177512231249154695e+01,9.813819021159036993e+01,9.953414390504860876e+01,3.607049268655118368e+01
1.813480690240675841e+01,2.678783249995530369e+01,8.653025597541304847e+00,-2.161234369902037145e+01,4.205567613974957375e+00,1.659677408834470924e+01,2.524699130357291921e+01,4.231040216515985719e+00,2.536572152837302951e+01,9.135039261834043600e+01,9.301825426548009546e+01,2.949269293356169541e+01
1.468727921815696114e+01,2.289649135332887653e+01,8.209212135161076063e+00,-1.789202833379561497e+01,3.024348807854504884e+00,1.428684939401943410e+01,2.481956512200842013e+01,-4.190975236383339464e+00,1.919138115314863313e+01,8.551429350010275243e+01,8.776680421999756732e+01,2.350479195413786115e+01
1.163051372434643937e+01,1.984401560802308850e+01,8.213501883662186032e+00,-1.476840731593486922e+01,1.789159399290046526e+00,1.265167582084597697e+01,2.469636338475758208e+01,-1.317333354806841150e+01,1.299993172668277452e+01,8.013077348104044972e+01,8.335969405402950372e+01,1.801356601107086419e+01
7.938808536423326956e+00,1.763064850415842244e+01,9.691839967716978421e+00,-1.178270874022855530e+01,-6.115000931105054605e-01,1.226749773535764909e+01,2.527668375148472535e+01,-2.183529190374262541e+01,6.849716745918326133e+00,7.487275056189467648e+01,7.937963253211395909e+01,1.383361151380562504e+01
2.769073065231436814e+00,1.605893938554349631e+01,1.328986632029026005e+01,-8.435883688216295084e+00,-4.982420987310538507e+00,1.335843295605940106e+01,2.702643765902437778e+01,-2.892099905108748814e+01,1.214371436429940943e+00,6.973814098071477474e+01,7.573807456938938287e+01,1.246974274279076589e+01
-4.010840168653496463e+00,1.510855367421897810e+01,1.911939384284699273e+01,-4.626568005098224745e+00,-1.144687465099342560e+01,1.594256281450684654e+01,3.036769884181034485e+01,-3.318970273332430310e+01,-3.044026620464966193e+00,6.513416229791958756e+01,7.280076500917762417e+01,1.485386636961328222e+01
-1.157802254506235506e+01,1.466962500156917670e+01,2.624764754660239774e+01,-6.726237080966686044e-01,-1.907022880980168011e+01,1.947035993314719704e+01,3.511546806953630551e+01,-3.427163115399883964e+01,-5.376922013231443032e+00,6.139329727127666558e+01,7.081972783500425805e+01,2.017905862355651792e+01
-1.803234215017431197e+01,1.418218443946058116e+01,3.221452658960215842e+01,2.777780937302086084e+00,-2.559327470170232033e+01,2.237356998386422902e+01,4.004756950507660918e+01,-3.340619259082048131e+01,-6.345559986193727298e+00,5.810536244278069518e+01,6.923108996322524433e+01,2.573235698428694107e+01
-2.171239294423353172e+01,1.284413836783398999e+01,3.455653131203122541e+01,5.270297853468686178e+00,-2.887694576110150635e+01,2.293252635071803880e+01,4.354657000697407909e+01,-3.289892598886935104e+01,-7.264530580016311134e+00,5.442846730176766101e+01,6.702550986526946986e+01,2.822024036700257099e+01
-2.307653888380424334e+01,1.020347882652197136e+01,3.328001771028637990e+01,7.208469335816197088e+00,-2.908362869457191735e+01,2.088021231161166824e+01,4.480889395678687492e+01,-3.456280184549847689e+01,-9.084580248456967766e+00,5.007247785721853717e+01,6.376559498344273891e+01,2.603157217272256219e+01
-2.416911231196929322e+01,6.390246757981621784e+00,3.055935906990755058e+01,9.541334146680956252e+00,-2.828382433292412657e+01,1.741429816084751536e+01,4.416485692736900148e+01,-3.887914280966915470e+01,-1.206328900344854915e+01,4.533151258682657669e+01,5.974143586767227276e+01,2.013538786933764513e+01
-2.631762916826381016e+01,1.856504388461351240e+00,2.817413355667824604e+01,1.274882917227560242e+01,-2.805756416153936428e+01,1.374401544603720637e+01,4.247572522358120750e+01,-4.529969868152673484e+01,-1.617635179381139210e+01,4.032637166908226334e+01,5.536676306560422489e+01,1.263908372666194069e+01
-2.919317130542787453e+01,-2.811912984944533456e+00,2.638125832043283836e+01,1.640958850737987262e+01,-2.845706056370375236e+01,1.034906959358826128e+01,4.063460147599886341e+01,-5.269478470694731698e+01,-2.119224932556758745e+01,3.499233489304876343e+01,5.091282091464223214e+01,5.010491968552996944e+00
-3.187953627842546922e+01,-6.949007313668188246e+00,2.493052896470315716e+01,1.975711705512281569e+01,-2.898853386510034369e+01,7.430666626676842412e+00,3.940871059099686846e+01,-5.958074312378731463e+01,-2.647370670919125857e+01,2.970127992829054975e+01,4.665229374603370616e+01,-2.000922195284180027e+00
-3.400283347323556882e+01,-9.951949468903460883e+00,2.405088400427433015e+01,2.234235102707931730e+01,-2.959673916948787209e+01,5.384822316878054238e+00,3.924087739983445999e+01,-6.446384774832699804e+01,-3.113752241919477726e+01,2.523070346486914062e+01,4.294586063863293646e+01,-7.918201166559175164e+00
-3.552667384488353974e+01,-1.137864738164368816e+01,2.414802646317838963e+01,2.395063434668373148e+01,-3.041927134174949998e+01,4.650829265850886074e+00,4.003969339518169335e+01,-6.640451819205519257e+01,-3.446599149357484038e+01,2.210745562136048292e+01,4.017009199868934388e+01,-1.296266076507781939e+01
-3.612388949233161384e+01,-1.102508326822212226e+01,2.509880622404434547e+01,2.428852511770545775e+01,-3.118994351391227582e+01,5.297762762434668815e+00,4.125430243088545978e+01,-6.543051908933635730e+01,-3.614307411933828718e+01,2.034124833593829251e+01,3.855146800112996885e+01,-1.789127605603425764e+01
-3.552237731580964919e+01,-9.255501848180776037e+00,2.626687546756005176e+01,2.334158096656098280e+01,-3.143726472901802538e+01,6.823997842021915616e+00,4.213973595641495962e+01,-6.251003679078205266e+01,-3.631082437820824538e+01,1.960807116487464796e+01,3.797601137785829195e+01,-2.290348322690447702e+01
-3.424378354999299745e+01,-7.156638137164710756e+00,2.708714541275580245e+01,2.185031876655135008e+01,-3.113083053301668102e+01,8.373655951094704619e+00,4.202356797891343376e+01,-5.918230558289668863e+01,-3.547637523868360176e+01,1.937576884222879059e+01,3.799368823373816895e+01,-2.725756289915912234e+01
-3.313262366976248074e+01,-5.807210147889167118e+00,2.732541352179715233e+01,2.072033631162165790e+01,-3.059639847270458546e+01,9.277605493169517104e+00,4.053731873500512251e+01,-5.702997616047831286e+01,-3.426049874860959932e+01,1.899819861845344349e+01,3.809547791288741081e+01,-2.979897719336635475e+01
-3.231055124112560861e+01,-5.583516004659339949e+00,2.672703523638639567e+01,2.018345599306844207e+01,-2.980757867771131231e+01,9.249742092301156404e+00,3.760589930110177903e+01,-5.722536324581409417e+01,-3.334545722846296201e+01,1.779609280310963015e+01,3.786452778276400011e+01,-2.958814710867386566e+01
-3.128205555619354783e+01,-6.387426487562446020e+00,2.489462906854745938e+01,1.998715086783983708e+01,-2.831924599687622646e+01,8.165659126514981381e+00,3.333447330482487558e+01,-6.020824573425078796e+01,-3.349273875739346806e+01,1.518892503826323903e+01,3.694722991853353022e+01,-2.638003930873086489e+01
-2.951235857009415042e+01,-7.587511678129287951e+00,2.192484689187738667e+01,1.961890191330346411e+01,-2.588302991297021194e+01,6.359228631268570631e+00,2.833567440638531210e+01,-6.529175453601529000e+01,-3.499570581349530585e+01,1.117276039978091973e+01,3.538538685232894210e+01,-2.082661640913938328e+01
-2.679970305653076679e+01,-7.753825856977840658e+00,1.904587719946154678e+01,1.831387811537053523e+01,-2.302611065300188642e+01,5.100803472628124169e+00,2.403515251661404406e+01,-7.057111697693520114e+01,-3.711530190105992943e+01,6.647030468294527594e+00,3.399551235544173267e+01,-1.405240660485295479e+01
-2.410023543164889759e+01,-5.853987091256551700e+00,1.824624834029700438e+01,1.605378419365113274e+01,-2.128404424456841326e+01,5.870515098761743822e+00,2.194592433714762336e+01,-7.384165164548082316e+01,-3.859285065308041851e+01,2.876490619010483307e+00,3.384238860449262631e+01,-6.957102796066092942e+00
-2.351899159074968537e+01,-2.830210406194442641e+00,2.068878118445587333e+01,1.435227078599320727e+01,-2.232290526235578199e+01,8.767382150248021588e+00,2.240009667694807050e+01,-7.407605919805833139e+01,-3.882351748801476532e+01,4.891849789030642270e-01,3.511704661177895304e+01,-1.267368849007066700e-01
-2.644187981571212731e+01,-1.090204970757781222e+00,2.535167484485088352e+01,1.506209982269987080e+01,-2.627315239126662405e+01,1.204562665436157864e+01,2.424251808205478653e+01,-7.201689848178757813e+01,-3.836253648869276844e+01,-9.705607108283427209e-01,3.679744372956274390e+01,5.869497048144191709e+00
-3.224562902703356571e+01,-2.372040884659466276e+00,2.987358814226646331e+01,1.867044400479744937e+01,-3.154814948597072544e+01,1.362280734491542233e+01,2.589969295708415231e+01,-6.929586332909281055e+01,-3.826783100467085319e+01,-2.411368889778104929e+00,3.758856243153196885e+01,1.047339899506683025e+01
-3.923725764599929278e+01,-6.537303478264218093e+00,3.269995416762317575e+01,2.420594830060267455e+01,-3.647509324949107423e+01,1.280040615230225853e+01,2.655791375290263190e+01,-6.724584341664328235e+01,-3.915348106070381107e+01,-4.237885049125462267e+00,3.696914737806360307e+01,1.299068711021578970e+01
-4.604720810608418446e+01,-1.230736957328742776e+01,3.373983853268051547e+01,3.034890046156917975e+01,-4.036041474992322975e+01,1.022874576184925388e+01,2.618936073267472509e+01,-6.666140311742833546e+01,-4.112338362220081223e+01,-6.319776485759241780e+00,3.512861409068370477e+01,1.230721093540243771e+01
-5.191660691449379073e+01,-1.862259382238563887e+01,3.329401309198747327e+01,3.625812300959049850e+01,-4.304333925447591014e+01,6.655330087678737350e+00,2.490763626559929023e+01,-6.808354190276234874e+01,-4.429268363049838086e+01,-8.746217151561863190e+00,3.228303684768027182e+01,7.485310949260919777e+00
-5.630348326391283109e+01,-2.515417243763518584e+01,3.114931082615245117e+01,4.157469130513987920e+01,-4.416317971756489413e+01,2.185038402933585644e+00,2.268814548073732240e+01,-7.174568507326887357e+01,-4.886176948887920446e+01,-1.217529525943337987e+01,2.845073996571875341e+01,-1.207174178082849103e+00
-5.864166806918149177e+01,-3.181756226235082252e+01,2.682410580670090283e+01,4.598962144341241043e+01,-4.316324911991208779e+01,-3.352048572417082539e+00,1.949313839629817480e+01,-7.729084307205837945e+01,-5.475826301052015310e+01,-1.728358457137179727e+01,2.371244968333735414e+01,-1.218795575642071682e+01
-5.842629350761235685e+01,-3.798222241130069676e+01,2.044407109617725382e+01,4.890512335965802748e+01,-3.983951438060807249e+01,-9.554678452446863091e+00,1.549902766181081759e+01,-8.364939030149096766e+01,-6.137694176237675237e+01,-2.394129432050580419e+01,1.844207441764398325e+01,-2.324310061505140723e+01
-5.528592685095711801e+01,-4.213272909697198543e+01,1.315319775384599232e+01,4.937778695677458529e+01,-3.460008766838212324e+01,-1.508827013111343973e+01,1.128272323299734836e+01,-8.922324903945332153e+01,-6.757500065342520656e+01,-3.101874783388662848e+01,1.335181148919296845e+01,-3.226935342029241127e+01
-4.915685184211898928e+01,-4.233616484739849284e+01,6.820686994576528051e+00,4.644514783891878551e+01,-2.837395098313576014e+01,-1.810533976763222341e+01,7.902210907563611109e+00,-9.228182360685890728e+01,-7.185662613958319866e+01,-3.681853257072619101e+01,9.472786284909398447e+00,-3.790206167906385559e+01
-4.085124485576749009e+01,-3.731814331357305292e+01,3.533101542045575805e+00,3.988229241548594928e+01,-2.262518741742574946e+01,-1.703688802055429363e+01,6.704673159599135346e+00,-9.145176006888783604e+01,-7.279187872742244281e+01,-3.963286665625037131e+01,7.929686582442430520e+00,-3.968595173342179550e+01
-3.249308553226649110e+01,-2.755796274071193253e+01,4.935122791400788245e+00,3.094657708116331918e+01,-1.923956742703555989e+01,-1.140609761450388326e+01,8.629173034071962789e+00,-8.635521415826595160e+01,-6.973698587936925719e+01,-3.843970399493864676e+01,9.314551238906336295e+00,-3.766102098140135013e+01
-2.701237719734324827e+01,-1.551029889239748272e+01,1.150207830478708360e+01,2.226021089775786876e+01,-1.990241835350732558e+01,-2.251120230483606210e+00,1.346606763875980128e+01,-7.807310458045635926e+01,-6.340125103966399678e+01,-3.354506554310162869e+01,1.314105741331398391e+01,-3.216584566011847102e+01
-2.656863453168401534e+01,-4.458201584896523961e+00,2.211043294662387737e+01,1.647224899105642493e+01,-2.510304501802184873e+01,8.248715497841205391e+00,1.981298793703864547e+01,-6.888244801013553342e+01,-5.569837530417560600e+01,-2.661217067046229090e+01,1.797859246759287899e+01,-2.416393308226691516e+01
-3.117732628679426199e+01,3.069323289422604795e+00,3.424664957604829141e+01,1.482590581802629970e+01,-3.357411323704205586e+01,1.766751720676722925e+01,2.568717413273224537e+01,-6.133364889103106776e+01,-4.901336489429741050e+01,-2.000935665664614760e+01,2.211183763695321858e+01,-1.530944455851253494e+01
-3.914587482450787803e+01,5.947444419684083883e+00,4.509331924401840297e+01,1.709010185728681108e+01,-4.304094587327612231e+01,2.416487140317450866e+01,2.934378389090434425e+01,-5.724250380962484996e+01,-4.532135423110798911e+01,-1.586875611704199329e+01,2.420941243877483018e+01,-7.478937051365921462e+00
-4.872766206545417589e+01,4.171570460235789035e+00,5.289923252551143662e+01,2.249496552082203138e+01,-5.170754714289741827e+01,2.696639606627358887e+01,2.989841442149957018e+01,-5.711503047365086161e+01,-4.548799195165204168e+01,-1.538895332704296592e+01,2.367999127663563996e+01,-2.413017991192090594e+00
-5.895540037340627748e+01,-1.560783323502987763e+00,5.739461704971982670e+01,3.028156458114234439e+01,-5.891044056646551752e+01,2.632938777519834161e+01,2.743860065665380787e+01,-6.017768035203478405e+01,-4.907996019586979486e+01,-1.872600682589494170e+01,2.063774885619783461e+01,-1.388457310746233020e+00
-6.909378714140810018e+01,-1.004377121592396804e+01,5.905001592529580989e+01,3.948317886209809302e+01,-6.452964118336346644e+01,2.307961472165154859e+01,2.271224263040428681e+01,-6.485734918604559596e+01,-5.473681221504774896e+01,-2.521898661489695570e+01,1.564223970767608840e+01,-4.425661335843832589e+00
-7.777586200490756596e+01,-1.952887139962813734e+01,5.824699060508633863e+01,4.849631536647002150e+01,-6.815825583916927144e+01,1.821730342325045271e+01,1.673426203984966421e+01,-6.946544064861565460e+01,-6.079607592378997794e+01,-3.355534884112783089e+01,9.481723457282141609e+00,-9.968998657838492150e+00
-8.275230753388191829e+01,-2.762804814740517045e+01,5.512425938627898603e+01,5.497064297847325776e+01,-6.885822611251472836e+01,1.289241585092849185e+01,1.055407100758927008e+01,-7.274797156851394675e+01,-6.578172217102368791e+01,-4.196920133897770455e+01,3.119006441578878963e+00,-1.568556959122217975e+01
-8.161626625828122883e+01,-3.167946608685523202e+01,4.993680017122362358e+01,5.639635288898761445e+01,-6.562880750102189609e+01,8.445147328618794802e+00,5.221849784996594579e+00,-7.401830751493614002e+01,-6.857281022254898062e+01,-4.863369037596280720e+01,-2.347575516826069020e+00,-1.954052911624266287e+01
-7.353243649653808234e+01,-3.000647220458505871e+01,4.352596429174605674e+01,5.156980880653395616e+01,-5.845943469160742012e+01,6.088097927729648973e+00,1.710748177872990494e+00,-7.306486117898052157e+01,-6.849912458066810927e+01,-5.211502190381223443e+01,-5.908253415750056803e+00,-2.063567891181213199e+01
-6.089330259396754030e+01,-2.328305532991145199e+01,3.761024726384448513e+01,4.205422510635118272e+01,-4.931123966117340984e+01,6.403510016006004335e+00,6.538878023052243638e-01,-7.017783023961969491e+01,-6.557723805310669718e+01,-5.175799803252278508e+01,-6.956713603114937250e+00,-1.951263808685501999e+01
-4.886987340268592561e+01,-1.457814221222376005e+01,3.429173119024589766e+01,3.195243138344173417e+01,-4.170933663606508901e+01,9.020133309477849082e+00,2.006647992353244980e+00,-6.625013111216431128e+01,-6.071267969999429681e+01,-4.803280893743160362e+01,-5.585700167510190717e+00,-1.760160474639807404e+01
-4.246439874918196722e+01,-7.904022149060916824e+00,3.456037659990011690e+01,2.570655951181131726e+01,-3.859712053770437024e+01,1.249480250097571599e+01,4.819529985274169093e+00,-6.265071470770921280e+01,-5.558903405634030293e+01,-4.272543514566125822e+01,-2.809792557817990755e+00,-1.625611421000223089e+01
-4.354104800424300947e+01,-6.255477393781537998e+00,3.728557061023588659e+01,2.567431782135209417e+01,-4.035977177519585979e+01,1.474344428415880692e+01,7.537284536837329796e+00,-6.068360636257223462e+01,-5.205486887785821182e+01,-3.841366790802249653e+01,-3.277131414940610554e-01,-1.601005104937751256e+01
-5.016557424316705749e+01,-1.012500088802218556e+01,4.004057335491468450e+01,3.111131962112002469e+01,-4.487661963654606012e+01,1.424680348560165299e+01,8.906440761154097885e+00,-6.085118273646305909e+01,-5.119793560558581902e+01,-3.707160046943922538e+01,3.350989059143900661e-01,-1.638975622927729603e+01
-5.796593660225271094e+01,-1.716154602921070804e+01,4.080439057280727866e+01,3.867081696100625265e+01,-4.903007242283256062e+01,1.115235520731630459e+01,8.773621900654875461e+00,-6.242416158739305843e+01,-5.269497989386911740e+01,-3.883841281062743889e+01,-1.263259966264413059e+00,-1.623639480095208043e+01
-6.221324049773273401e+01,-2.317354667331348139e+01,3.903969382418007683e+01,4.390705337807908393e+01,-5.024869649380723757e+01,7.306989738200020845e+00,8.163664650358231967e+00,-6.365582409315876333e+01,-5.489120239671939316e+01,-4.200832823572881125e+01,-4.206160385322217365e+00,-1.420533743223606038e+01
-5.993181304878483928e+01,-2.423337380660936802e+01,3.569843924193190787e+01,4.338215825136521886e+01,-4.752510851962156124e+01,5.136406931215846683e+00,8.549941736134638148e+00,-6.270462434917752148e+01,-5.570475278119485552e+01,-4.419444626920385844e+01,-6.813308705400872967e+00,-9.467721297573339356e+00
-5.135086404380734137e+01,-1.910504433227394827e+01,3.224581971128548474e+01,3.659276351239401492e+01,-4.165570692035112188e+01,5.940137088780103269e+00,1.061845872517665867e+01,-5.896254281787224727e+01,-5.397903458571015278e+01,-4.391461266756213178e+01,-7.801449092188130763e+00,-2.414994742253413040e+00
-3.973401423095440066e+01,-1.014512332369578296e+01,2.958889090700642299e+01,2.630885990339714198e+01,-3.466293807013518347e+01,8.972123505996110637e+00,1.360410002826665199e+01,-5.367838813851387414e+01,-5.022929971202376009e+01,-4.146395232897186389e+01,-7.157693153388886564e+00,5.514601027142350453e+00
-2.940888380789641587e+01,-1.398079505348050589e+00,2.801080430229194107e+01,1.666430674474216289e+01,-2.881477994704590628e+01,1.238235457889513036e+01,1.605977610958237989e+01,-4.894375439735765099e+01,-4.600091367904836659e+01,-3.825212375205284587e+01,-5.849040612663420902e+00,1.272038373104199316e+01
-2.336017581853939262e+01,4.261631325651098479e+00,2.762180714392990311e+01,1.057632184856706559e+01,-2.565002262901431962e+01,1.484977044147820102e+01,1.716610738762379640e+01,-4.609614655603581923e+01,-4.258522632318167211e+01,-3.540940324207369372e+01,-4.751744990061708585e+00,1.761395649492640558e+01
-2.209283190490894810e+01,6.184418893268781581e+00,2.827725079791305163e+01,8.661609272186586495e+00,-2.535804751617409636e+01,1.605097365046733060e+01,1.710006802559640704e+01,-4.530028304603597178e+01,-4.046342700325056541e+01,-3.328476014398539462e+01,-4.185850273452373926e+00,1.834417653648478463e+01
-2.408054214106270408e+01,5.139302253063788406e+00,2.921984439385779808e+01,9.836304005679497919e+00,-2.681751431677541220e+01,1.604248462945608367e+01,1.636119106936651235e+01,-4.622463395025442168e+01,-3.970632419104019561e+01,-3.201167446894297797e+01,-4.354434590817314543e+00,1.387704871029636422e+01
-2.715429726716689629e+01,2.155547494141513809e+00,2.930984476103576242e+01,1.256960629244148464e+01,-2.840260583725492438e+01,1.475383970160267033e+01,1.513650431496825632e+01,-4.849725456275129432e+01,-4.042710658881087937e+01,-3.191225116249756866e+01,-5.634621227216458195e+00,5.535452337644459320e+00
-3.007729577277358146e+01,-2.069201181828378644e+00,2.800809459066865159e+01,1.596589511166079234e+01,-2.926044544894657307e+01,1.218015801553901944e+01,1.345137057847637152e+01,-5.145139681997994074e+01,-4.258958068601455693e+01,-3.310456814886094179e+01,-8.151402251506148389e+00,-3.498602710114113723e+00
-3.327979914695133346e+01,-7.034412227219142721e+00,2.624538691945178570e+01,2.004193397322710268e+01,-3.009377157548513892e+01,8.939182168625407598e+00,1.164743738656874150e+01,-5.384442724503457356e+01,-4.553515055145792445e+01,-3.499712393146000267e+01,-1.124860539536284421e+01,-1.013629858938901407e+01
-3.814549852307487043e+01,-1.212158797395856347e+01,2.602391054883210586e+01,2.517816002847678192e+01,-3.256506522732411923e+01,6.298670680733999383e+00,1.032866432418126124e+01,-5.430021442182721358e+01,-4.805546362440931318e+01,-3.651580433621961674e+01,-1.367034220511014730e+01,-1.275905386957784771e+01
-4.521413118862525948e+01,-1.670137188013939422e+01,2.851275930819790005e+01,3.127396032424346117e+01,-3.745169938222150563e+01,5.177249374031730689e+00,9.709254883295852068e+00,-5.234840324464382633e+01,-4.920870158434740205e+01,-3.694704641458259431e+01,-1.447849126457308166e+01,-1.173275298742142780e+01
-5.321748528619081497e+01,-2.042587750277580838e+01,3.279160778312326130e+01,3.744722725667114815e+01,-4.360707701262295899e+01,5.334873446410119513e+00,9.298197042874074114e+00,-4.888633358733814305e+01,-4.896594879489491348e+01,-3.633551369356388960e+01,-1.369202913606086724e+01,-9.001231914323511774e+00
-6.083418319267693875e+01,-2.322716707339326092e+01,3.760701611898813468e+01,4.293554684493085460e+01,-4.975730166195138793e+01,6.224395619478462649e+00,8.643593185889722363e+00,-4.522631077432026814e+01,-4.775690108774578135e+01,-3.489321385267047759e+01,-1.178343815955648566e+01,-6.615549316393350310e+00
-6.841298854021555087e+01,-2.515841186856981437e+01,4.325457667134639905e+01,4.788200994027010893e+01,-5.626828527747774444e+01,7.989462820419249489e+00,7.985893681584516735e+00,-4.204712408119799250e+01,-4.583859535554917386e+01,-3.264162116598743779e+01,-9.019955950365034170e+00,-5.868553832873137033e+00
-7.619755789648588973e+01,-2.635949418734908889e+01,4.983806370883367975e+01,5.245300730310896853e+01,-6.334219785046050788e+01,1.062300283240230847e+01,7.572334047880447727e+00,-3.972806889752524739e+01,-4.370281434960985933e+01,-3.011195584435484918e+01,-5.895520535142233065e+00,-7.728830455386037634e+00
-8.206838278233038864e+01,-2.704483395059977369e+01,5.502354883142364628e+01,5.571653716121308264e+01,-6.875791576530258453e+01,1.287669237958710511e+01,6.839458946864373168e+00,-3.901390806552372226e+01,-4.254410251911321694e+01,-2.876859351135892950e+01,-3.672563367596397121e+00,-1.259274959479658662e+01
-8.281741937251157992e+01,-2.746621276096856334e+01,5.535120661123210084e+01,5.621757080991091016e+01,-6.917555242740245092e+01,1.290750827493539177e+01,4.843628802317055282e+00,-4.063949021696546993e+01,-4.364903610796223887e+01,-3.021269326421829504e+01,-3.757238591925822213e+00,-1.933279693956590961e+01
-7.728537319099410752e+01,-2.792879286837350961e+01,4.935658032230561787e+01,5.352119249663994793e+01,-6.327808912476878334e+01,9.796680613934334758e+00,1.246196130955702364e+00,-4.448514108848777937e+01,-4.737713634399939622e+01,-3.498469418721074931e+01,-6.572101395657641731e+00,-2.554222710082903092e+01
-6.754044268467326617e+01,-2.863436779775665997e+01,3.890607488659745172e+01,4.876561647045158310e+01,-5.304168867522278674e+01,4.323222271777546588e+00,-3.298050202172910339e+00,-4.936128636092095689e+01,-5.275125847443852223e+01,-4.196173162173774784e+01,-1.116915170201225393e+01,-2.871878908421937737e+01
-5.725365101577084204e+01,-2.936254023282012326e+01,2.789111078262732235e+01,4.374007975261675085e+01,-4.226765445563857782e+01,-1.488716069477846515e+00,-7.536829348781665772e+00,-5.358176388326128858e+01,-5.794313422385914691e+01,-4.879402408583023742e+01,-1.579467168644735686e+01,-2.744654826731529340e+01
-4.956327946170188881e+01,-2.951692817890969778e+01,2.004635128246451004e+01,3.981131480549052526e+01,-3.440423062974048918e+01,-5.475961838199140175e+00,-1.028433929332038943e+01,-5.575629228785003022e+01,-6.126523785763082941e+01,-5.314228635135864920e+01,-1.877785106022930250e+01,-2.230412489471136439e+01
-4.625324647070241468e+01,-2.865588338901835996e+01,1.759736308135206784e+01,3.769877483819159636e+01,-3.147192598803788144e+01,-6.283605036444842362e+00,-1.088311387819037179e+01,-5.533711012738538670e+01,-6.190921236861432675e+01,-5.386418597270695585e+01,-1.921304487701427277e+01,-1.540426682288289761e+01
-4.773191256875789179e+01,-2.704170021364053511e+01,2.069021235478107457e+01,3.770274774950154750e+01,-3.379326634687615183e+01,-3.927070031878390655e+00,-9.494415741682523446e+00,-5.286790460016617033e+01,-6.016737092572736145e+01,-5.146492686265472116e+01,-1.730598783624737536e+01,-8.830232806791833866e+00
-5.312581660101517400e+01,-2.562547575417523760e+01,2.750034084649942301e+01,3.979784104416203405e+01,-4.006356207497036337e+01,2.524987946061794108e-01,-7.070685411264832076e+00,-4.974659207748468503e+01,-5.724241723988508568e+01,-4.757514727977857660e+01,-1.419460292712389027e+01,-4.021908260925190604e+00
-6.056955441230338977e+01,-2.517677208806834344e+01,3.539278232389037981e+01,4.342121022403374297e+01,-4.801946267805887913e+01,4.567569546153647408e+00,-4.665083151839127140e+00,-4.736060982693130228e+01,-5.452799838339483074e+01,-4.379965274697205047e+01,-1.116855831662632426e+01,-2.126184996037925767e+00
-6.746987522600875309e+01,-2.530550556424829978e+01,4.216436966141172604e+01,4.710454969082324084e+01,-5.517462450645810890e+01,8.086715451234631757e+00,-2.714256221118087620e+00,-4.629346501455761143e+01,-5.277350664569770089e+01,-4.089373999683793670e+01,-8.909821319715607757e+00,-3.913118379658007573e+00
-7.099341461699012257e+01,-2.457873878695716030e+01,4.641467582968028438e+01,4.869473104571571298e+01,-5.928966424961884485e+01,1.078123421794734149e+01,-1.086122405319160489e+00,-4.626459695206195732e+01,-5.189620037848054324e+01,-3.877597476870749205e+01,-7.358618764291710690e+00,-9.106701361777249204e+00
-6.955202411749887403e+01,-2.176653912236588795e+01,4.778548499477641087e+01,4.670198489477208170e+01,-5.930707829273798382e+01,1.303711916263075921e+01,4.872183060468819882e-01,-4.654595280302077498e+01,-5.137251592898634556e+01,-3.699843454503341178e+01,-6.041449374860073718e+00,-1.621289449764286061e+01
-6.413958026459162909e+01,-1.710053429857122609e+01,4.703904596565990914e+01,4.166420581216483754e+01,-5.610558321078637078e+01,1.509598452735683516e+01,2.068008157956623183e+00,-4.656059162437590260e+01,-5.079540774590104490e+01,-3.525570575792006167e+01,-4.614548812995423077e+00,-2.371007674066813919e+01
-5.749207052226117298e+01,-1.247186833382299831e+01,4.502020218807369645e+01,3.588196679867600380e+01,-5.155528885029536923e+01,1.645445947580897084e+01,3.257224124389800135e+00,-4.647041526892250829e+01,-5.035259660681438021e+01,-3.374853526399053294e+01,-3.406168700043635589e+00,-3.129829359919785148e+01
-5.217403622880844694e+01,-1.033231172094645522e+01,4.184172450749348826e+01,3.191250287801729257e+01,-4.709524300918198492e+01,1.596179953554888975e+01,3.365038639213184801e+00,-4.708334684429772210e+01,-5.070989244618156278e+01,-3.308081964097718952e+01,-3.298842056116554122e+00,-3.927673281831656027e+01
-4.993032084565979289e+01,-1.205882636191755353e+01,3.787149448336970181e+01,3.139014942021923815e+01,-4.383694128287953617e+01,1.309168345708369685e+01,2.137626823827663003e+00,-4.893704903648450255e+01,-5.222141116714460196e+01,-3.357646570686450360e+01,-4.825395423601227307e+00,-4.711275093630160882e+01
-5.167503080021269568e+01,-1.704511413011157828e+01,3.462991666972460081e+01,3.453764520062148335e+01,-4.300996693240631430e+01,8.877183663727933549e+00,1.756604296073092097e-01,-5.168759361769308214e+01,-5.443708168852625562e+01,-3.475531133457754152e+01,-7.499385819956133403e+00,-5.350818973485890240e+01
-5.677689966053767279e+01,-2.315827042984773243e+01,3.361862923030952288e+01,4.002747333247909722e+01,-4.505082160443694761e+01,5.151130884741203175e+00,-1.549700067264919712e+00,-5.454451184007711362e+01,-5.652880307983146224e+01,-3.569372152922695562e+01,-1.012590301406275195e+01,-5.755482159413491416e+01
-6.264535069414149859e+01,-2.787007084790212730e+01,3.477527984585517373e+01,4.531043173027547510e+01,-4.861508358631460425e+01,3.218159182349590086e+00,-2.423303856062906547e+00,-5.696899219399712422e+01,-5.796292578312385047e+01,-3.576998743673879488e+01,-1.162989613889859442e+01,-5.912945185116291213e+01
-6.599858385295620167e+01,-2.926061961174406889e+01,3.673796424082428302e+01,4.773006649721153138e+01,-5.134519206770445976e+01,3.432507374339760275e+00,-2.419596146271534742e+00,-5.884929026458525669e+01,-5.870483436791325005e+01,-3.498681095534792007e+01,-1.165089002749263614e+01,-5.830330318049344385e+01
-6.518328194348299576e+01,-2.700005417877041936e+01,3.818322776432115973e+01,4.622686283395782425e+01,-5.172891276602999255e+01,5.305945938221236169e+00,-1.959666999546324728e+00,-6.039722829012463734e+01,-5.913106866033705700e+01,-3.391598583149507107e+01,-1.071601841481661133e+01,-5.510419400034043491e+01
-6.123816430026352009e+01,-2.275679386203599819e+01,3.848137043783256672e+01,4.215548516763245601e+01,-4.996888747077190374e+01,7.638959091043850513e+00,-1.667853738212741632e+00,-6.198260605478996865e+01,-5.985639792071908971e+01,-3.343348432644684465e+01,-9.952601465537142644e+00,-5.003540814014737492e+01
-5.625896155855583913e+01,-1.891999206495355423e+01,3.733896949320378411e+01,3.782415614105513413e+01,-4.697889579807217331e+01,9.048388061641688296e+00,-2.064939551902397863e+00,-6.382808772625583771e+01,-6.134816906311384344e+01,-3.416835133509704292e+01,-1.036886450617735989e+01,-4.406091012501192239e+01
-5.107400046367764901e+01,-1.669633960260571115e+01,3.437766086066987015e+01,3.429102118919153241e+01,-4.300313010205787378e+01,8.721507975922218492e+00,-3.316191948199866957e+00,-6.584197394563835815e+01,-6.355143446029119048e+01,-3.606966471233103277e+01,-1.228906121855536782e+01,-3.787175381330558110e+01
-4.502905443390646667e+01,-1.562752462169747503e+01,2.940152981180333569e+01,3.095431957326205108e+01,-3.763316350690990220e+01,6.769660935967511506e+00,-5.126979066058986234e+00,-6.774095890992671798e+01,-6.589532918163513386e+01,-3.848148081356247019e+01,-1.533390845876474984e+01,-3.166448437338778987e+01
-3.734547794073615279e+01,-1.443097565128892867e+01,2.291450228903797282e+01,2.668535321805848426e+01,-3.073386630638771067e+01,4.080356208453570055e+00,-6.808193396867032732e+00,-6.923378269902737259e+01,-6.765325912146819576e+01,-4.046260040676587977e+01,-1.864909009113103977e+01,-2.556967322706893242e+01
-2.808572945704492341e+01,-1.196992365561385085e+01,1.611580580101822591e+01,2.087753083091050854e+01,-2.290836999042948463e+01,1.830643487856632223e+00,-7.637674274242796102e+00,-7.021793853909061056e+01,-6.843039581720027797e+01,-4.120249953522311159e+01,-2.127540641807123123e+01,-2.011997589377788387e+01
-1.834900657385437128e+01,-7.996720401293913483e+00,1.035228617214405844e+01,1.396749924703282097e+01,-1.532012741186440330e+01,8.297579260852346872e-01,-7.402646460208263335e+00,-7.097450233546653919e+01,-6.849420179597093750e+01,-4.054078356156173868e+01,-2.269461433316829968e+01,-1.625035269169865870e+01
-1.030274419517109763e+01,-3.576658897152801497e+00,6.726085297598408452e+00,7.655885182061220817e+00,-9.543794590142752554e+00,1.135913408739865016e+00,-6.571118730943629416e+00,-7.206234207716484264e+01,-6.860566065759473986e+01,-3.911511825954502797e+01,-2.309017425567654769e+01,-1.464109807999287760e+01
-6.929012516774427866e+00,-7.288453903039116000e-01,6.200167126047213983e+00,4.534739164204314221e+00,-7.527049070879203718e+00,2.281329909446124571e+00,-5.839964457250673036e+00,-7.382269054473660219e+01,-6.936680629646542684e+01,-3.781542218824561985e+01,-2.303163883248242527e+01,-1.536882866746262088e+01
-1.084067056682424379e+01,-1.259463683825032820e+00,9.581206882572564254e+00,6.831619204629408415e+00,-1.100163159583031991e+01,3.787310321844815419e+00,-5.534185623390891706e+00,-7.596174324324555016e+01,-7.067289196777839777e+01,-3.707280001491653820e+01,-2.297977813919496271e+01,-1.827699607096355550e+01
-2.258488651235170153e+01,-5.637374640462134323e+00,1.694751187145963911e+01,1.499855418457399558e+01,-2.033814656970521995e+01,5.424630795744198153e+00,-5.416144259179294096e+00,-7.766418031231501118e+01,-7.180166862373434356e+01,-3.672634570500662932e+01,-2.304596795612616944e+01,-2.297811898906960337e+01
-3.978314917470861189e+01,-1.278210765078829958e+01,2.700104152348715303e+01,2.725356892137566689e+01,-3.375709032006800925e+01,7.022554228241292051e+00,-5.047411301697421138e+00,-7.816276833719480521e+01,-7.201321200621642049e+01,-3.652917049922493220e+01,-2.313723097300655951e+01,-2.843861879385624292e+01
-5.793108670289515771e+01,-2.092574146338551344e+01,3.700534523907331419e+01,4.045262149990936251e+01,-4.766775842350615022e+01,8.029034219361365743e+00,-4.407655390858106870e+00,-7.738490622701142740e+01,-7.117020599983911211e+01,-3.665048863428481241e+01,-2.333319119818073517e+01,-3.336955054860738556e+01
-7.236860694228791147e+01,-2.874992889794214435e+01,4.361867804390632841e+01,5.160128274996493047e+01,-5.807356191947406643e+01,7.397760525310042468e+00,-4.083785605689883802e+00,-7.618768531834197688e+01,-6.992204116307189565e+01,-3.757309935145669044e+01,-2.401798362488528582e+01,-3.734347122945286657e+01
-7.992751423269002942e+01,-3.529710899485644404e+01,4.463040523739112331e+01,5.859533578324980851e+01,-6.228145083978110819e+01,4.528292656985595244e+00,-4.557401843788051465e+00,-7.571202291322289568e+01,-6.909259886079274793e+01,-3.940794106375638250e+01,-2.538711606271656862e+01,-4.098727272121487886e+01
-7.929681120844372799e+01,-3.877154028631455418e+01,4.052527092168380562e+01,5.983732261781140949e+01,-5.987970510211292208e+01,6.161938973580738388e-01,-5.333591594213142884e+00,-7.630160192334417957e+01,-6.873759779957835292e+01,-4.134521113412069582e+01,-2.678273186284910778e+01,-4.475689837804508642e+01
-7.098311571099645789e+01,-3.691937657626831992e+01,3.406373913427998446e+01,5.446513230367337144e+01,-5.251641424809279357e+01,-1.788591616144426855e+00,-5.236376978638341839e+00,-7.735385919589468529e+01,-6.816470568666564134e+01,-4.212415189191055021e+01,-2.696876378363199933e+01,-4.785838955504608805e+01
-5.763650363010041389e+01,-2.945232505764286302e+01,2.818417857200672216e+01,4.374494091312713806e+01,-4.299950900392130393e+01,-1.048209313464908865e+00,-3.673474636994840115e+00,-7.827373640614948158e+01,-6.700784392271077650e+01,-4.121449127421738723e+01,-2.536529658593833148e+01,-4.869051024737709099e+01
-4.337995921586483661e+01,-1.890297226478286063e+01,2.447698695062857155e+01,3.112267666310353675e+01,-3.416186867493102142e+01,2.382089964215077682e+00,-1.230799050158589036e+00,-7.908054436115392605e+01,-6.580865494371469993e+01,-3.924955002955935157e+01,-2.270997261431678993e+01,-4.633737458599669878e+01
-3.177015928053116056e+01,-8.632553854383981928e+00,2.313760542569125889e+01,2.013478847771395408e+01,-2.782575769959558087e+01,6.915226629806639380e+00,1.005892691083356105e+00,-8.006479286257228978e+01,-6.541308993881561662e+01,-3.731041878792144217e+01,-2.040615119090715979e+01,-4.133715343590309033e+01
-2.465311690901224750e+01,-1.016332552007380929e+00,2.363678435654648524e+01,1.288081259258677136e+01,-2.461959224341179109e+01,1.104152466456188719e+01,2.299047284412189196e+00,-8.133995867709344907e+01,-6.618711043905823033e+01,-3.616181521435294144e+01,-1.954394768123827930e+01,-3.494965010016863971e+01
-2.259690608140906676e+01,2.719434064989931787e+00,2.531634014593820936e+01,1.016368893596465739e+01,-2.449556966493473809e+01,1.372163970362158025e+01,2.446882986327130638e+00,-8.278262653002079219e+01,-6.787028501822449300e+01,-3.606689629325212820e+01,-2.046484544289267760e+01,-2.846302376828339220e+01
-2.518990722087553280e+01,2.407472975561593564e+00,2.759738019597398662e+01,1.174360404115228640e+01,-2.695534715518407154e+01,1.452769027726395734e+01,1.607944001622020336e+00,-8.415518702281295305e+01,-6.990598667369152963e+01,-3.688046187426302680e+01,-2.281482020203080197e+01,-2.360395471612648777e+01
-3.099097766375552965e+01,-9.354513499016728906e-01,3.005552631338841607e+01,1.633765187115823991e+01,-3.107230539439830963e+01,1.379997337631228049e+01,1.588304837587102281e-01,-8.525131789591257814e+01,-7.175959268954902370e+01,-3.815512877489492638e+01,-2.578189324896279899e+01,-2.223682165108533226e+01
-3.816771428862515592e+01,-5.516565820770214401e+00,3.265114846738724452e+01,2.218186775900572627e+01,-3.592275199002586561e+01,1.252535613580118579e+01,-1.356404172877548442e+00,-8.594819936998396770e+01,-7.296657762217417087e+01,-3.923595647221630855e+01,-2.834245597853104570e+01,-2.446114159192853066e+01
-4.537484213123179444e+01,-9.658381795979565254e+00,3.571646033478230464e+01,2.786049825699370075e+01,-4.100255210405399708e+01,1.181006486137349043e+01,-2.321254982120136923e+00,-8.615124715716024184e+01,-7.316264413625292207e+01,-3.948422645709644030e+01,-2.958725837704374939e+01,-2.786909721640056503e+01
-5.192353095456850554e+01,-1.248242458918108433e+01,3.944110636491528510e+01,3.264692901379727630e+01,-4.607458675645986546e+01,1.223867885173718939e+01,-2.337290340638112696e+00,-8.584607803409011240e+01,-7.230874811522039636e+01,-3.868583860529976448e+01,-2.914948740445503717e+01,-2.961741497714528393e+01
-5.740838908506822236e+01,-1.402574885991195153e+01,4.338264022468193559e+01,3.635417311634576976e+01,-5.074257094445686533e+01,1.357074042210142473e+01,-1.526342304786202364e+00,-8.529731564841404179e+01,-7.087144468310813750e+01,-3.729008399226680837e+01,-2.744152913964171603e+01,-2.892833275954946970e+01
-6.108978819809650673e+01,-1.477838369258367912e+01,4.631140450503629324e+01,3.881663918895188203e+01,-5.403664597095978905e+01,1.489728706922780432e+01,-5.373082145788055097e-01,-8.508569682982890470e+01,-6.975277108290606520e+01,-3.618910304908106212e+01,-2.552619360692771622e+01,-2.738853505804683408e+01
-6.144706411302553306e+01,-1.503174827564803273e+01,4.641531583689877749e+01,3.935536480095242950e+01,-5.427961543967855818e+01,1.507492103990428767e+01,-2.109881827622417383e-01,-8.582056811069314506e+01,-6.995698447599068004e+01,-3.626811127885923014e+01,-2.471841941271207688e+01,-2.737318257441903668e+01
-5.719905566054237056e+01,-1.485325607548477223e+01,4.234579958457672433e+01,3.730244714102198600e+01,-5.013842491618128605e+01,1.330827755027288717e+01,-1.086374349095752256e+00,-8.774823413741232514e+01,-7.208419579686876943e+01,-3.805607868306717734e+01,-2.599457665191522437e+01,-3.050801081240381762e+01
-4.922759999828743815e+01,-1.462440703038043743e+01,3.460319296742400041e+01,3.325977334235058436e+01,-4.231130304588694457e+01,9.635159119404484329e+00,-3.119578188786026107e+00,-9.054654510346364304e+01,-7.597234365179947702e+01,-4.156982217374808641e+01,-2.947006615689756615e+01,-3.687461004985576807e+01
-4.047886330865874527e+01,-1.501113587565597385e+01,2.546772743251769100e+01,2.903561469787735660e+01,-3.344137232848336794e+01,4.905884642450899058e+00,-5.806986023610980041e+00,-9.345788297130721389e+01,-8.074364772573612470e+01,-4.633795897151589571e+01,-3.433665585355950611e+01,-4.487054442705503732e+01
-3.378689403638931310e+01,-1.626132921983419521e+01,1.752556481606800887e+01,2.619837293488836139e+01,-2.625306287153508222e+01,3.530078890237997036e-01,-8.412472706118080623e+00,-9.565449048737033877e+01,-8.513810887259076310e+01,-5.153537941348319862e+01,-3.921843217997660247e+01,-5.208743573249197567e+01
-3.064542048157629850e+01,-1.789273974357449859e+01,1.275268073751268538e+01,2.529232859076885376e+01,-2.245454446984973274e+01,-2.751014187585125725e+00,-1.007400777814810588e+01,-9.653064584466697795e+01,-8.790961022128414015e+01,-5.610526854701599575e+01,-4.264698193031745177e+01,-5.669416810633340731e+01
-3.175984637648593889e+01,-1.912824446307224591e+01,1.263160191292259604e+01,2.629137176657492248e+01,-2.307632022587622345e+01,-3.293266396281969488e+00,-9.960743695664767472e+00,-9.579348811311425038e+01,-8.816308235405557525e+01,-5.885067567234057861e+01,-4.350843773118935331e+01,-5.807427203001825688e+01
-3.717071742444974092e+01,-1.944191663756126687e+01,1.772880078639541068e+01,2.891606675369340707e+01,-2.835811430573775027e+01,-7.972860554811145306e-01,-7.694768674173872114e+00,-9.360939637478783482e+01,-8.574432672200475736e+01,-5.890006607412119877e+01,-4.152459809191022799e+01,-5.650938436872173298e+01
-4.490863747089185409e+01,-1.866954681128333249e+01,2.623909065911349714e+01,3.207042965711747229e+01,-3.638863486136587966e+01,3.866704267325520306e+00,-3.900787193451804136e+00,-9.086049413861292123e+01,-8.165371524654926816e+01,-5.661139905303897280e+01,-3.769085149379133526e+01,-5.278770795125072368e+01
-5.103552010580159504e+01,-1.693054125907751128e+01,3.410497884622711950e+01,3.388371074210312628e+01,-4.320083876985146532e+01,8.622479411349720735e+00,-1.621994061454365976e-01,-8.888277044000605542e+01,-7.778031340597554788e+01,-5.372815117952904274e+01,-3.401213774080051166e+01,-4.819503805778253280e+01
-5.263283999117298606e+01,-1.471371777874325915e+01,3.791912221193086907e+01,3.323044857251955619e+01,-4.570867176958351052e+01,1.156031053015628629e+01,1.911527536538954575e+00,-8.857546967674429084e+01,-7.580062911563912564e+01,-5.224377724348963170e+01,-3.241450382955864740e+01,-4.430964605773836240e+01
-5.003774459781556772e+01,-1.281173794720825931e+01,3.722600665010662624e+01,3.075152924146962263e+01,-4.392457079038379675e+01,1.209045969904485851e+01,1.592252650747035592e+00,-8.985250011240633228e+01,-7.629915345129111870e+01,-5.321456996424159058e+01,-3.384307681934141243e+01,-4.241021012749405372e+01
-4.601865724023394932e+01,-1.198994923701848769e+01,3.402870800271301732e+01,2.824204434427479171e+01,-4.023462533067047531e+01,1.088504384843894002e+01,-8.293683055317473407e-01,-9.190331663508705162e+01,-7.874739476398464433e+01,-5.644091596643043829e+01,-3.809184529355270854e+01,-4.286089063077852046e+01
-4.398574988749168568e+01,-1.278783441944952060e+01,3.119791546753800660e+01,2.766334800809106653e+01,-3.772328491789838267e+01,9.170123005025182295e+00,-4.376455488032329200e+00,-9.372764194119247350e+01,-8.198318941216193423e+01,-6.082578504266735564e+01,-4.404416031243362539e+01,-4.464100025624136947e+01
-4.673967925161062453e+01,-1.541688762546067970e+01,3.132279162564413610e+01,3.047651111035503746e+01,-3.905156405884110171e+01,8.134464614013392492e+00,-7.735968482899622245e+00,-9.446793678279746587e+01,-8.468750866105138186e+01,-6.494628501883269678e+01,-5.003327182659847239e+01,-4.576979282326092857e+01
-5.537687388454413906e+01,-1.953889171266970948e+01,3.583798217136703101e+01,3.699906505959080505e+01,-4.550042803291984939e+01,8.593554994631940502e+00,-9.707870622130236882e+00,-9.362496400378022088e+01,-8.575406460296639466e+01,-6.748946058722398789e+01,-5.435301615848408119e+01,-4.490525008759020409e+01
-6.822246941720284497e+01,-2.411457735188706764e+01,4.410789206480686175e+01,4.583588452479789765e+01,-5.595726443585588328e+01,1.067161358712647079e+01,-9.765723901541266017e+00,-9.133319691882249458e+01,-8.470191018904220925e+01,-6.761039715460054822e+01,-5.596500142761250629e+01,-4.240963337351640661e+01
-8.073373461095961545e+01,-2.753429717359916395e+01,5.319943743685012549e+01,5.391594360147202281e+01,-6.673172815625368060e+01,1.366584205286397946e+01,-8.260008328036560599e+00,-8.843469101985174063e+01,-8.195881041160868108e+01,-6.536295616984821777e+01,-5.497824927865067934e+01,-3.960324275624195423e+01
-8.715458907471145267e+01,-2.810115280354265721e+01,5.905343627065719403e+01,5.751381539657472075e+01,-7.292678796082554982e+01,1.638525839064593725e+01,-6.175372043117826948e+00,-8.613417352989725373e+01,-7.868559652213539835e+01,-6.186965774057307499e+01,-5.248654452685832439e+01,-3.737131651044596481e+01
-8.331062730198176780e+01,-2.474392648483380697e+01,5.856670081663521898e+01,5.395786567044894610e+01,-7.084638523822178513e+01,1.781921681950989367e+01,-4.684095014302940285e+00,-8.539855759618825459e+01,-7.614024200286145572e+01,-5.878500658330182205e+01,-4.989461912145550571e+01,-3.585565977837811147e+01
-6.909765412133602069e+01,-1.763320672339440520e+01,5.146444739742783270e+01,4.322371418024168577e+01,-6.022287023581392873e+01,1.775736121967731407e+01,-4.584636657624917788e+00,-8.634122019169713269e+01,-7.496093913483592530e+01,-5.733005669996462217e+01,-4.815523351629749271e+01,-3.492584877526499554e+01
-4.909971570674601082e+01,-8.411927555981476345e+00,4.068778815024980133e+01,2.843961220977942617e+01,-4.479814942084629337e+01,1.686776838460292538e+01,-6.064091762102947314e+00,-8.805578329548835370e+01,-7.490721393203719458e+01,-5.770789400604130748e+01,-4.744348123054865596e+01,-3.422943560224923232e+01
-3.038317810555693654e+01,2.903852983022026102e-01,3.067356340334348985e+01,1.454703036005562566e+01,-3.035823091216715497e+01,1.608595391734750990e+01,-9.043945050175347333e+00,-8.926089376488268101e+01,-7.527137031752577911e+01,-5.926928562877876772e+01,-4.745118348178193202e+01,-3.339182844380651005e+01
-1.860487357952615994e+01,6.105139801592287085e+00,2.471001338060185759e+01,5.660691965813713367e+00,-2.140079802567633038e+01,1.591028042819776900e+01,-1.347226254654311539e+01,-8.921684798283747853e+01,-7.552982739216217567e+01,-6.109872144274291372e+01,-4.783403836025204470e+01,-3.262084649682451243e+01
-1.565957274551152878e+01,8.045648706434645803e+00,2.370522145142859927e+01,3.278375257325787828e+00,-1.933289136485348791e+01,1.630858080118593278e+01,-1.908960362226665808e+01,-8.800151156560905008e+01,-7.554150324243546777e+01,-6.245792318515596264e+01,-4.828713461293304476e+01,-3.243028747701948333e+01
-2.042596575396061453e+01,6.461917368462601452e+00,2.688788312190462193e+01,6.665467492939324501e+00,-2.321958291350234660e+01,1.702381537101135578e+01,-2.525031693301684044e+01,-8.617364578442136747e+01,-7.533624967339800094e+01,-6.292480303610313541e+01,-4.844558371350332493e+01,-3.277545920616884700e+01
-3.041167628629615294e+01,2.202527421331196056e+00,3.261420370710774108e+01,1.410601245598812703e+01,-3.100258169077563508e+01,1.760246125774757786e+01,-3.136657616095379808e+01,-8.453007054097579953e+01,-7.511603674977915546e+01,-6.249580472094969252e+01,-4.814416578803621150e+01,-3.285615325614843840e+01
-4.242813186049620811e+01,-3.843834956154577043e+00,3.858429690382103416e+01,2.349862624994320726e+01,-3.995455551234024227e+01,1.733618163492502617e+01,-3.738862708474273688e+01,-8.401173060781663082e+01,-7.536675403958167863e+01,-6.165729786953831137e+01,-4.779410862664725812e+01,-3.167127136378258001e+01
-5.317729769347324975e+01,-1.075575492120447763e+01,4.242154277174721955e+01,3.267252957516278400e+01,-4.728524805923705543e+01,1.556509437319621725e+01,-4.362716070465882012e+01,-8.538249673629242409e+01,-7.662289416066599301e+01,-6.122386825055230020e+01,-4.824315147907176993e+01,-2.907712839949600081e+01
-6.048297175398312930e+01,-1.782387607088688952e+01,4.265909568257377060e+01,4.012331076546080055e+01,-5.121854454486522457e+01,1.200312316225055476e+01,-5.026477740688022777e+01,-8.883159545359198717e+01,-7.914519854830103895e+01,-6.203377995596856920e+01,-5.021580019927883143e+01,-2.649571191077236776e+01
-6.431874154112149711e+01,-2.491827107394931673e+01,3.940047046664881236e+01,4.572675321197010589e+01,-5.178003534102845151e+01,6.805048749476349634e+00,-5.708349638147896599e+01,-9.383964196210753528e+01,-8.280499570712609625e+01,-6.456619308059458717e+01,-5.387344372280536220e+01,-2.615282766600083164e+01
-6.638089752579010394e+01,-3.204164058222370670e+01,3.433925694304213749e+01,5.032558037654855099e+01,-5.057661043988913718e+01,7.639513894549607720e-01,-6.337429551581847420e+01,-9.923111632387880832e+01,-8.695731967370856808e+01,-6.844869412026935152e+01,-5.864380639279080043e+01,-2.940346035503264588e+01
-6.813958377472127381e+01,-3.821181301860751489e+01,2.992777075558864297e+01,5.419790723653238018e+01,-4.944864607961513059e+01,-4.490035192465450464e+00,-6.802549598442389822e+01,-1.033670012231609405e+02,-9.042423372275779059e+01,-7.233121270051383078e+01,-6.328103259557426696e+01,-3.579734972959474959e+01
-6.949250490392871882e+01,-4.152866936768187145e+01,2.796383553572097114e+01,5.639774034626281463e+01,-4.916521908783087724e+01,-7.146660910172299985e+00,-7.002528309962970354e+01,-1.047890969417786664e+02,-9.198863459299205658e+01,-7.463640344881035560e+01,-6.637885424313651583e+01,-4.355999945006345087e+01
-6.953572213205785602e+01,-4.085648834151943021e+01,2.867923379001183548e+01,5.593795902314557367e+01,-4.940342730484198341e+01,-6.497021710160643337e+00,-6.920056306341297159e+01,-1.031525575354834245e+02,-9.116261170925608326e+01,-7.468806189808464069e+01,-6.720575690610166930e+01,-5.061540189945682755e+01
-6.792740448287084121e+01,-3.703767675774489732e+01,3.088972772459862881e+01,5.305812408574636407e+01,-4.950185858502747038e+01,-3.497983410809146765e+00,-6.652618435526080987e+01,-9.955212266543571786e+01,-8.858455845672108353e+01,-7.315779936644446479e+01,-6.610044352172729987e+01,-5.541573041126306975e+01
-6.523466486240934614e+01,-3.229393794794823691e+01,3.294072691393305519e+01,4.914751690275340934e+01,-4.904912159474833544e+01,-3.162955952183499342e-02,-6.360674780673793549e+01,-9.576284231629171018e+01,-8.564232485909917614e+01,-7.141128125232954460e+01,-6.401838604149783407e+01,-5.751496100368127173e+01
-6.234255580153010357e+01,-2.842368544644068962e+01,3.391887035456062449e+01,4.559926626106197745e+01,-4.810802135368088983e+01,2.567065810909888945e+00,-6.165643734379126784e+01,-9.302076051290890746e+01,-8.347687590172348848e+01,-7.038505935853844164e+01,-6.165216319550614088e+01,-5.715793645329647177e+01
-5.936559842397161191e+01,-2.529319921756370348e+01,3.407239920587837645e+01,4.247920944580528868e+01,-4.684095316087569216e+01,4.466293169734633750e+00,-6.079569296623444785e+01,-9.138819235987240575e+01,-8.224001484379519411e+01,-7.004335294708712922e+01,-5.890611750478899467e+01,-5.406005468583628470e+01
-5.529253800582377920e+01,-2.134230629152731495e+01,3.395023171376615068e+01,3.853130798860415496e+01,-4.495069023290386667e+01,6.670080451325494764e+00,-6.037227567751978796e+01,-9.017348821222132926e+01,-8.142312935536527618e+01,-6.984489090656647647e+01,-5.531235821447593537e+01,-4.731240259039554985e+01
-4.949631243862574337e+01,-1.595263531467369233e+01,3.354367712342089902e+01,3.310508977577584488e+01,-4.207734699134893930e+01,9.413954547646842030e+00,-6.000817936202529523e+01,-8.894155214907489437e+01,-8.078978894533688049e+01,-6.963169144488286122e+01,-5.107347783963071208e+01,-3.671313199020001150e+01
-4.310564308231068509e+01,-1.052242363858253427e+01,3.258321944319612129e+01,2.740643232693660281e+01,-3.862938033738020494e+01,1.179913693255823404e+01,-5.998761187271756512e+01,-8.790180062789100646e+01,-8.055266403432368350e+01,-6.978443360409922036e+01,-4.732756717186239115e+01,-2.362148507270944009e+01
-3.787318897113807026e+01,-6.593991519928282585e+00,3.127919745067688240e+01,2.301391242318002739e+01,-3.554821348573430839e+01,1.312606046231046975e+01,-6.047325490551154559e+01,-8.716694364148399643e+01,-8.057760957561534099e+01,-7.035437610957735899e+01,-4.503546508693124650e+01,-1.073777566844358944e+01
-3.453820244516003157e+01,-4.140513414941754178e+00,3.039768902968451769e+01,2.023443350036860267e+01,-3.353847185851202539e+01,1.379177578322284958e+01,-6.095733512075953797e+01,-8.622840865040436142e+01,-8.006295404064260879e+01,-7.057370596435096388e+01,-4.405761408091539266e+01,-1.501036274646939450e+00
-3.314294106605102996e+01,-2.466331989932140090e+00,3.067660907558431305e+01,1.874374102349542781e+01,-3.296660145672530007e+01,1.454653412405732382e+01,-6.082401714519337332e+01,-8.456159384968087522e+01,-7.832341866346868642e+01,-6.962881067980478633e+01,-4.363170065608966297e+01,1.409811398166160412e+00
-3.394946125049182939e+01,-1.652580302757218345e+00,3.229688094719925573e+01,1.875473553286218475e+01,-3.406217491190079727e+01,1.550111867260366338e+01,-5.998533388059500737e+01,-8.228737541507764774e+01,-7.542688058364689141e+01,-6.747469965997538566e+01,-4.324518718550982754e+01,-2.083243728317681676e+00
-3.734115203413272610e+01,-2.514817826661380984e+00,3.482633420693527881e+01,2.088973430242102225e+01,-3.684141538120650949e+01,1.609068277094864641e+01,-5.882304940512660352e+01,-8.007770962210084065e+01,-7.202265046475832833e+01,-6.473446889352564426e+01,-4.290416268355744478e+01,-9.878201981823771405e+00
-4.314861832188989155e+01,-5.857423957497198685e+00,3.729119436385598618e+01,2.543420407290662411e+01,-4.079924683480806635e+01,1.545852336628614587e+01,-5.797701889087475990e+01,-7.879286348645342741e+01,-6.909041732832967853e+01,-6.235440106623439505e+01,-4.309903364399699655e+01,-1.981131836343888608e+01
-5.026114265480676835e+01,-1.200887454897102025e+01,3.825226810529843391e+01,3.194407988455293435e+01,-4.471863071456368743e+01,1.273453872769122874e+01,-5.828270024495320456e+01,-7.923074148056194588e+01,-6.782041312407616829e+01,-6.139922558686407683e+01,-4.463345840549527566e+01,-3.032651352713123671e+01
-5.706277848715352263e+01,-2.045102244961466909e+01,3.661175603700094427e+01,3.933447994830288508e+01,-4.725779710761680974e+01,7.644257592349438468e+00,-6.036469166178818568e+01,-8.171484411007305937e+01,-6.906592617166046466e+01,-6.253692040849418277e+01,-4.804464240851821444e+01,-3.991689081894510593e+01
-6.238795144071796273e+01,-2.946638651395911879e+01,3.292156492622032715e+01,4.619525770926391317e+01,-4.807727081949498427e+01,1.336059192490614222e+00,-6.388971932424669120e+01,-8.552872421426182825e+01,-7.247466977509078845e+01,-6.539679979419513245e+01,-5.289725891804362590e+01,-4.738955954812669091e+01
-6.585397461993221668e+01,-3.647656978689445850e+01,2.937740483249860546e+01,5.109961596386673222e+01,-4.802624339619714533e+01,-3.819267653471059454e+00,-6.741805301976219766e+01,-8.895838130130108823e+01,-7.632042241653587666e+01,-6.862915235403981740e+01,-5.773190485229241631e+01,-5.257142482143486006e+01
-6.731132021114422059e+01,-3.923426172468437301e+01,2.807705848592001274e+01,5.290529216310482497e+01,-4.804985407914065831e+01,-5.698789090560318016e+00,-6.929485467875869631e+01,-9.028066546319411145e+01,-7.851279630435892898e+01,-7.070241103338010191e+01,-6.091632797111510911e+01,-5.605413973984991571e+01
-6.680834711804898518e+01,-3.704466079902449138e+01,2.976368631848393775e+01,5.134661158040095330e+01,-4.857931266019122063e+01,-3.643010147197383031e+00,-6.868775858772910681e+01,-8.879404485933127944e+01,-7.784840335475115580e+01,-7.063970143732322526e+01,-6.160942509177741755e+01,-5.824499230215416645e+01
-6.555025108778397680e+01,-3.131906369824664438e+01,3.423118738899604097e+01,4.776972287739105383e+01,-5.016803348511140825e+01,1.491171410612254888e+00,-6.589021604175162850e+01,-8.501912014368501502e+01,-7.449068807166085548e+01,-6.838161257984698693e+01,-6.005896932948013500e+01,-5.891070214435794838e+01
-6.567303204138805484e+01,-2.480601724773485017e+01,4.086701479311123819e+01,4.460580332979019147e+01,-5.357061099977637753e+01,8.010122741229709575e+00,-6.199273632398693223e+01,-8.022980445424866502e+01,-6.964386239842866644e+01,-6.472416061058038395e+01,-5.727064335019696983e+01,-5.743194701788502243e+01
-6.799296943849954289e+01,-1.943309678408603958e+01,4.855987265387096130e+01,4.317633808413106067e+01,-5.857351049110526020e+01,1.441356234887408228e+01,-5.817636185707443275e+01,-7.571925965684293658e+01,-6.472208986688480081e+01,-6.061202228045628715e+01,-5.430780501878232513e+01,-5.338109427116980044e+01
-7.068555697615447286e+01,-1.491600746103988051e+01,5.576954951457157961e+01,4.238633553608104876e+01,-6.345370380819105094e+01,2.009696562750279014e+01,-5.502009256622437761e+01,-7.220730940846891599e+01,-6.056656828964089812e+01,-5.654002149873618066e+01,-5.172126465218349267e+01,-4.718696910058440608e+01
-7.083973838937416190e+01,-1.003140396772089638e+01,6.080833442110985487e+01,4.016279556723252142e+01,-6.594896245054623307e+01,2.485207296281140188e+01,-5.256559696993868158e+01,-6.988310509026854334e+01,-5.743483943794517899e+01,-5.292413802667847733e+01,-4.969204056126636004e+01,-4.016262173393542412e+01
-6.686989550851669151e+01,-4.783987291534103292e+00,6.208590821643883118e+01,3.571467243432457650e+01,-6.454189769813069688e+01,2.792389411179371095e+01,-5.097337066023766994e+01,-6.887055256180934748e+01,-5.557331118903038458e+01,-5.067135978676345331e+01,-4.855424450738043163e+01,-3.345253743873391272e+01
-5.923377098354876580e+01,-5.527660842474451108e-01,5.868100489875723014e+01,2.994940434763575610e+01,-5.902839582618902625e+01,2.822664442874599544e+01,-5.066674858556439176e+01,-6.933945093452959441e+01,-5.538356286503140780e+01,-5.087612347747813146e+01,-4.885210734882302575e+01,-2.724598963247197503e+01
-4.967736087572080095e+01,1.530505444456773390e+00,5.120786631963314051e+01,2.430063373351670108e+01,-5.056140531850765996e+01,2.555483013742410492e+01,-5.170596589792020836e+01,-7.104368708527888998e+01,-5.684793149932942669e+01,-5.382964119730409180e+01,-5.075935890951698326e+01,-2.127380554314958871e+01
-4.045847560923626673e+01,1.538036666098031802e+00,4.199651227478950233e+01,1.985997495283238479e+01,-4.138679111107224884e+01,2.111089703951485674e+01,-5.341059042891817654e+01,-7.305743377358471946e+01,-5.909975592560181212e+01,-5.841170849284892341e+01,-5.363251942546893503e+01,-1.551285699415313601e+01
-3.338049265714424507e+01,4.028683329634383248e-01,3.378336098956253153e+01,1.704676447029227049e+01,-3.373648401224333071e+01,1.667666962827916066e+01,-5.484263610571194647e+01,-7.434698049933199115e+01,-6.092729278498470080e+01,-6.269872920597192234e+01,-5.643464918317834389e+01,-1.042027542553667629e+01
-2.865610029114182566e+01,-6.542565545861618315e-01,2.800184373601014443e+01,1.532512153498841379e+01,-2.843671957529006988e+01,1.350833867870643701e+01,-5.546608573515783291e+01,-7.458025705646495851e+01,-6.164456294409463766e+01,-6.524148917342660070e+01,-5.854300969956247513e+01,-6.716791925914518124e+00
-2.509810469983111858e+01,-6.601905228647920731e-01,2.443791417642045261e+01,1.360121783133964435e+01,-2.483138703452124219e+01,1.192518428372851425e+01,-5.531430627659738519e+01,-7.427501064830599375e+01,-6.137924710244367077e+01,-6.571656107188289297e+01,-6.000913168517002561e+01,-4.519923726793889429e+00
-2.156830141426883785e+01,6.496399621236796929e-01,2.221794137584632267e+01,1.119969857680114700e+01,-2.196937692249598584e+01,1.158325449333547752e+01,-5.477770989088496378e+01,-7.421255359221630954e+01,-6.070028762645892328e+01,-6.466805697338270420e+01,-6.122195981765495532e+01,-3.060279709759960109e+00
-1.809932726560642280e+01,2.898039780582843949e+00,2.099736704564279677e+01,8.350571651362864500e+00,-1.972783274681571086e+01,1.211720730817630631e+01,-5.422025137233798375e+01,-7.472717639538682022e+01,-6.005809321253421018e+01,-6.298533331035008587e+01,-6.241982525955313577e+01,-1.514789238137199234e+00
-1.581329716821361764e+01,5.429808478834361907e+00,2.124310564650129862e+01,5.929733229468311606e+00,-1.887596622501627408e+01,1.345174496833364230e+01,-5.370531124082013008e+01,-7.556017595143417509e+01,-5.954126887409253754e+01,-6.155480189744118036e+01,-6.347088174963939622e+01,6.641616336423010747e-01
-1.567221359148369508e+01,7.560067131352863790e+00,2.323228072228975094e+01,4.742521426160517528e+00,-1.995657572162210514e+01,1.540549144133511739e+01,-5.313982322410029013e+01,-7.631825000606053777e+01,-5.911550420668340422e+01,-6.104651206290004239e+01,-6.417482141508237703e+01,3.626672992918025251e+00
-1.737508099756389157e+01,8.859783058750279494e+00,2.623486405576732139e+01,4.864715132601000747e+00,-2.239524751412750092e+01,1.744613601808523384e+01,-5.249050304548023149e+01,-7.684103884445852373e+01,-5.885749131870102246e+01,-6.165548775340050014e+01,-6.468415035129146418e+01,6.434796983181366059e+00
-1.982274095602502939e+01,9.467076115370218758e+00,2.928981707084843578e+01,5.690855169310935047e+00,-2.515726992299240194e+01,1.922617566153327573e+01,-5.160623815569504558e+01,-7.696807686592174491e+01,-5.871036968204516171e+01,-6.287488298231932049e+01,-6.534603561417365825e+01,7.316995148140610361e+00
-2.252522222366245686e+01,1.008699207302629830e+01,3.261221429614204226e+01,6.612503439267500838e+00,-2.811285565111138141e+01,2.122831064832752546e+01,-4.989299662851927053e+01,-7.606787098204057429e+01,-5.806563870192385934e+01,-6.355895148148646712e+01,-6.605789948672487810e+01,4.852710164238626334e+00
-2.632690725548118849e+01,1.163188694156391101e+01,3.795879419649854469e+01,7.587756106537211664e+00,-3.254777735665770422e+01,2.475617794802523264e+01,-4.627516128160539921e+01,-7.303754842151896298e+01,-5.579927898538122122e+01,-6.229335885040642751e+01,-6.596692892636981753e+01,-1.186175696754298459e+00
-3.239865583971653251e+01,1.478026886439791809e+01,4.717892470356810009e+01,8.871097242043415321e+00,-3.997491497632742607e+01,3.102123023972626115e+01,-3.974073933680200099e+01,-6.703900700933118628e+01,-5.099008951397021150e+01,-5.810542808362262690e+01,-6.407224381905014354e+01,-9.274031137077814790e+00
-3.990290089342159519e+01,1.964923791141598031e+01,5.955213880429146656e+01,9.992509971247820033e+00,-4.968327416461280421e+01,3.967564607559499734e+01,-3.045053713787441296e+01,-5.854621982793467083e+01,-4.393134006433660232e+01,-5.145383002036680153e+01,-6.038535113018288314e+01,-1.658883205667142491e+01
-4.546164870775690758e+01,2.569433242478212520e+01,7.115598113199321517e+01,9.543601377354121951e+00,-5.812539085443531661e+01,4.847380637006355641e+01,-2.015996837484161830e+01,-4.950368973538991213e+01,-3.631304186677806456e+01,-4.438208991445153373e+01,-5.632695538236661292e+01,-2.098411861831497305e+01
-4.620145600727964563e+01,3.196275236579696966e+01,7.816420837253113518e+01,6.593861034837870783e+00,-6.200785974637356901e+01,5.504549609033804103e+01,-1.095190373031341124e+01,-4.197395652512945929e+01,-2.997063891798191193e+01,-3.908403691780577560e+01,-5.357403488707388561e+01,-2.224073078763084865e+01
-4.251299395921526525e+01,3.754380983211326850e+01,8.005680379078339115e+01,1.848690021616585577e+00,-6.123779353764589928e+01,5.869497271150067519e+01,-3.791784731162503252e+00,-3.667196097482536032e+01,-2.555261574407484915e+01,-3.633980206473044916e+01,-5.269910666719852799e+01,-2.116336518010055201e+01
-3.712195563488837990e+01,4.189343070730179619e+01,7.901538634164531061e+01,-3.010764350535461986e+00,-5.818984875230974296e+01,6.025056461905043648e+01,1.475226353148481717e+00,-3.284494592346864295e+01,-2.248229416997807206e+01,-3.533947564486064152e+01,-5.309484798719145715e+01,-1.832051153552077238e+01
-3.260101306357194773e+01,4.484537490858404851e+01,7.744638797161132970e+01,-6.618135705742874464e+00,-5.526470367476868972e+01,6.084090986979173010e+01,5.316287740567513076e+00,-2.916531061899466692e+01,-1.975103987789103854e+01,-3.462453012814152231e+01,-5.379793658764557307e+01,-1.433774236476780573e+01
-3.013048035064680263e+01,4.636721200923394548e+01,7.649769235933615619e+01,-8.420703981549655381e+00,-5.354845768095690062e+01,6.104157723369947064e+01,7.853093056908817537e+00,-2.473424758882679697e+01,-1.666144325571235285e+01,-3.318180378158059796e+01,-5.423306157342061340e+01,-1.064161630595928720e+01
-2.944627021553984036e+01,4.649103883855983099e+01,7.593730905355506877e+01,-8.631881877216208920e+00,-5.276765954210263487e+01,6.078972008823488693e+01,8.612357158123684187e+00,-1.961207238200332981e+01,-1.315034319172875499e+01,-3.088332302954280451e+01,-5.440319261421944930e+01,-8.361447816128054100e+00
-2.935700200825087336e+01,4.549307296182954730e+01,7.485007496953571149e+01,-8.029738473614385086e+00,-5.193152111606741528e+01,5.981274450725990732e+01,6.787335203082978552e+00,-1.467253432844180772e+01,-9.646123046764609299e+00,-2.821957886122993742e+01,-5.457525862180633425e+01,-6.792370950237824445e+00
-2.865867557504477148e+01,4.384516129861873424e+01,7.250383687311861536e+01,-7.460524406402403663e+00,-5.018569445526210870e+01,5.798840623688462159e+01,1.714195941771586185e+00,-1.114693260414454912e+01,-6.806302017443339736e+00,-2.595131731591906288e+01,-5.494363439504163438e+01,-4.367696680659745923e+00
-2.662359503385734882e+01,4.197755364556739011e+01,6.860114867887963896e+01,-7.458295511452433857e+00,-4.710267019538405009e+01,5.531171360692260208e+01,-6.876314068946535407e+00,-1.022307210868418359e+01,-5.337688902961247095e+00,-2.481539084441248022e+01,-5.552917086133403046e+01,-7.995228063088377635e-01
-2.263311532368825851e+01,4.024643679882041170e+01,6.287955212196342103e+01,-8.442294551835693994e+00,-4.225065432232846518e+01,5.171471043948685775e+01,-1.890917050336388527e+01,-1.279109645864964229e+01,-5.840349036339404165e+00,-2.518965106119862796e+01,-5.623379202491457818e+01,2.620360267721379088e+00
-1.598039903110474036e+01,3.899606453943449225e+01,5.497646356999391060e+01,-1.092671581100998424e+01,-3.503903949953939190e+01,4.711438519706340600e+01,-3.405419232251606587e+01,-1.938993378344630969e+01,-8.741444803803567254e+00,-2.705549866553622707e+01,-5.701172375157252503e+01,4.515817405119753047e+00
-6.780055280718245037e+00,3.831036569948285830e+01,4.509042097965580354e+01,-1.495844405957618584e+01,-2.555656830308904404e+01,4.165982760572543953e+01,-5.155950834755341816e+01,-3.013004366262020994e+01,-1.422568099338496417e+01,-3.025275792995057245e+01,-5.799151670474243758e+01,4.679817573872923298e+00
2.989508489823199167e+00,3.766442935120672075e+01,3.467492086083833414e+01,-1.935866031836384238e+01,-1.548623613667842669e+01,3.587419713856220227e+01,-7.000823050591893093e+01,-4.437479556431942029e+01,-2.202212260228717966e+01,-3.458318149275891074e+01,-5.938074296920666484e+01,3.930011013239718132e+00
1.017367816839598404e+01,3.628127723814317562e+01,2.610759906920219109e+01,-2.219876084529593641e+01,-7.608165901075544468e+00,3.063272267601204035e+01,-8.745862785460552402e+01,-6.055272608072129259e+01,-3.130555948517238463e+01,-3.973986665615071701e+01,-6.131071058290934417e+01,3.125777192274401095e+00
1.249883485363996805e+01,3.396268462334229099e+01,2.146384976915756226e+01,-2.224304127830350453e+01,-4.137902878495402170e+00,2.695463631951833250e+01,-1.020784010002405040e+02,-7.654470700464038657e+01,-4.094610998330053775e+01,-4.531944017350492260e+01,-6.380704960885543642e+01,2.643378084067724565e+00
9.827396073184736736e+00,3.130109106440298916e+01,2.147369499067375642e+01,-1.968891009031105455e+01,-5.525272499796664682e+00,2.556163516464741292e+01,-1.127806412022077609e+02,-9.036110909158915661e+01,-4.981679630788356405e+01,-5.081758007494406115e+01,-6.674222377905938686e+01,2.944063189037108508e+00
3.749272773703153927e+00,2.924656917846645143e+01,2.549729640421908528e+01,-1.576041863997229697e+01,-1.061075162507005487e+01,2.661708108799562922e+01,-1.192253467910495317e+02,-1.005339566561562492e+02,-5.686484205423852245e+01,-5.548706927884593654e+01,-6.963868196692392587e+01,5.035513620801611800e+00
-3.755619843304889738e+00,2.858743507543857731e+01,3.234305491819955591e+01,-1.182045384292916346e+01,-1.775060168485564560e+01,2.988227543247657536e+01,-1.214685808169884353e+02,-1.062804927941104864e+02,-6.122832788624934608e+01,-5.838615002899668838e+01,-7.171228074987088519e+01,9.723958589129740204e+00
-1.134634853377139940e+01,2.950798102516393229e+01,4.085432955839174696e+01,-8.654827562259535867e+00,-2.570722510445363795e+01,3.483319951853224694e+01,-1.199788906340651948e+02,-1.076844438603279741e+02,-6.260283041107318525e+01,-5.879345661921411903e+01,-7.240227308540134743e+01,1.681813170606987740e+01
-1.826258574836328918e+01,3.146489614645620847e+01,4.972748189427625221e+01,-6.390006276212252700e+00,-3.353198689283148326e+01,4.052492912328214913e+01,-1.157832094160594636e+02,-1.056706923164047254e+02,-6.146490224215104092e+01,-5.666759082454392882e+01,-7.184335866402471993e+01,2.504305978878070960e+01
-2.378899328311345585e+01,3.350268816854739384e+01,5.729168145111794530e+01,-4.866355108027739185e+00,-4.010936624906023695e+01,4.559906861631422714e+01,-1.102204129461880910e+02,-1.016672161663465062e+02,-5.887351034088197110e+01,-5.280252564632923651e+01,-7.078099828461247967e+01,3.196553508589242654e+01
-2.718478450960984105e+01,3.471580398843854454e+01,6.190058849750577252e+01,-3.933530534223166342e+00,-4.425386197791581822e+01,4.870053752313393858e+01,-1.045378360682182404e+02,-9.720690470566655961e+01,-5.610800321267090851e+01,-4.857384155887648092e+01,-7.015182871280680388e+01,3.456831258915466520e+01
-2.789706944227359386e+01,3.463259159704694667e+01,6.252966103877818682e+01,-3.599159264694098415e+00,-4.511122118590735397e+01,4.902667830743961019e+01,-9.967486190956851999e+01,-9.357277515399309209e+01,-5.438236614892377219e+01,-4.543795484270654583e+01,-7.077147568042475712e+01,3.119082849077343766e+01
-2.539871062490959730e+01,3.352679638636475090e+01,5.892550701073223252e+01,-4.267464472148793320e+00,-4.220697499479803838e+01,4.659046418638595100e+01,-9.611358854855726008e+01,-9.144403449188153843e+01,-5.448411530558824722e+01,-4.436643723424696617e+01,-7.311579572432394514e+01,2.272368378868960903e+01
-1.895214931271740255e+01,3.252152353372913041e+01,5.147367284590465886e+01,-6.885959866134198748e+00,-3.533011449436409634e+01,4.216770695702440719e+01,-9.370526864531078104e+01,-9.065914912144891957e+01,-5.629723446951362575e+01,-4.536029277898883549e+01,-7.702354715958982467e+01,1.160628117975468143e+01
-8.261791140693803825e+00,3.295482530727903026e+01,4.121661644743122821e+01,-1.232057289000465872e+01,-2.487117288792431324e+01,3.696341980132319804e+01,-9.182760821790608929e+01,-9.040110226881512290e+01,-5.874966970108913245e+01,-4.749952267520895077e+01,-8.168472781973977703e+01,3.788844312515435853e-01
5.378261342680451307e+00,3.496191700773513844e+01,2.958365566451336548e+01,-2.006429521898141388e+01,-1.221905857032441034e+01,3.180456427478151582e+01,-9.010882339248801998e+01,-8.994137865230619866e+01,-6.066270747701285870e+01,-4.985389619981685883e+01,-8.629516947170586150e+01,-9.057703167848469405e+00
1.890430327019551271e+01,3.654419150789007631e+01,1.763988823715357057e+01,-2.762484249393052949e+01,5.445368134720790509e-01,2.631130272994809971e+01,-8.904433856065773512e+01,-8.938706800349221737e+01,-6.183520579494334868e+01,-5.246843110022816603e+01,-9.079420215586470988e+01,-1.589635097764269744e+01
2.835726060705491136e+01,3.436010036719068950e+01,6.002839759595133273e+00,-3.134690709596564062e+01,1.112350230434279830e+01,1.920005401639895126e+01,-8.964757561791030582e+01,-8.956922058810816623e+01,-6.309813188813198792e+01,-5.620482798806973079e+01,-9.573351797733209878e+01,-2.056838854016163509e+01
3.019288635910085006e+01,2.597150343084050661e+01,-4.221382928800657020e+00,-2.822322150337532420e+01,1.719183636423735351e+01,9.837476221649160024e+00,-9.240168429979073039e+01,-9.113441155174780306e+01,-6.529152716924595268e+01,-6.157662219137648663e+01,-1.014245420458787095e+02,-2.416215784529314092e+01
2.316844415108469590e+01,1.197392361022003726e+01,-1.119452054140466579e+01,-1.791132259434179019e+01,1.721166138595665984e+01,-5.694313368650454343e-01,-9.656156769227541758e+01,-9.386606015584979446e+01,-6.836301386572299066e+01,-6.791532754962963736e+01,-1.073842858849532718e+02,-2.727324539095104328e+01
9.873817580112149273e+00,-3.716433955720636284e+00,-1.359025153637250405e+01,-3.627584885861683262e+00,1.181656449765103822e+01,-9.444909045327644748e+00,-1.003947467093299650e+02,-9.677212041111023666e+01,-7.134940465810008448e+01,-7.365979120406367997e+01,-1.125122256501755800e+02,-2.943342786033130665e+01
-4.171799984293302899e+00,-1.576646145320368575e+01,-1.159466146944982157e+01,9.258671755233836009e+00,3.855209385813334944e+00,-1.428524845481086913e+01,-1.020297944343900554e+02,-9.856124089649472353e+01,-7.301774121247680682e+01,-7.729411974348209924e+01,-1.156759303818537177e+02,-2.991662331016275544e+01
-1.377921270201682269e+01,-2.043004437674219531e+01,-6.650831675264512910e+00,1.632585224988575590e+01,-3.371554506380427974e+00,-1.399674872991370833e+01,-1.004155829994354576e+02,-9.831846853102202033e+01,-7.276477084692281494e+01,-7.824806099475328836e+01,-1.164877992873165056e+02,-2.899487343046901699e+01
-1.724480474089750714e+01,-1.804622846309487016e+01,-8.014237227361662441e-01,1.689166876525748151e+01,-8.022477620193919634e+00,-9.782716395046350044e+00,-9.609966654439308797e+01,-9.630908030347022475e+01,-7.131944313107157996e+01,-7.749965284754941308e+01,-1.160126837643883562e+02,-2.818735500417511375e+01
-1.704588074414197862e+01,-1.299244184073424435e+01,4.053438902869311633e+00,1.434462109458441503e+01,-1.042119574558834216e+01,-4.747530372755346839e+00,-9.112842851109019193e+01,-9.406494134102779014e+01,-7.047490135654309995e+01,-7.727459660959837606e+01,-1.165762669377557614e+02,-2.942301860842886541e+01
-1.715812464617954447e+01,-1.033460386500910033e+01,6.823520780632435390e+00,1.317697807708625213e+01,-1.201393400768086828e+01,-1.917179484998977390e+00,-8.775311311206719722e+01,-9.325761229951349662e+01,-7.178953684885081543e+01,-7.955958144568636214e+01,-1.203416354808950643e+02,-3.399827120246391132e+01
-1.925004359826708722e+01,-1.212581742646800009e+01,7.124226171261512697e+00,1.525748876136275989e+01,-1.340664979954622105e+01,-2.485785424564674884e+00,-8.709392848328279513e+01,-9.448867765457694645e+01,-7.550289001828774360e+01,-8.474027525234190250e+01,-1.278837360511486310e+02,-4.181850372809103789e+01
-2.190075751618917010e+01,-1.707854850004696345e+01,4.822209015605070093e+00,1.923133560681277032e+01,-1.376568974532696821e+01,-5.892965730788443324e+00,-8.896102261010389611e+01,-9.725010571707700535e+01,-8.065930259289160631e+01,-9.172493416814356237e+01,-1.381408961711113363e+02,-5.126353905711306425e+01
-2.317555827531501933e+01,-2.294964678730381635e+01,2.259114874744783119e-01,2.295232862449040567e+01,-1.221635810367264696e+01,-1.090588704825049149e+01,-9.242703692904812840e+01,-1.006629118829603868e+02,-8.594377075071436423e+01,-9.900934695266155927e+01,-1.493551648369639224e+02,-5.999292064824440018e+01
-2.297865497600743367e+01,-2.835274206108471162e+01,-5.374087085613620474e+00,2.560003150367034408e+01,-9.323064951789090671e+00,-1.624301119761399548e+01,-9.624310411413694055e+01,-1.039113520639661346e+02,-9.025483482143714298e+01,-1.053446040786217139e+02,-1.597670730009673434e+02,-6.611921689996219698e+01
-2.315571551626065627e+01,-3.306218187300280675e+01,-9.906466357278139512e+00,2.795461670619651429e+01,-7.062991988897354467e+00,-2.079712084904599223e+01,-9.917003035776544095e+01,-1.062732013501929629e+02,-9.288680336626229916e+01,-1.098609990563937941e+02,-1.679766398922409678e+02,-6.876897140734173774e+01
-2.577778116355772653e+01,-3.756343928056848824e+01,-1.178565811754641146e+01,3.132754781098155306e+01,-7.299958511164583719e+00,-2.400911241592322298e+01,-1.004687306402184674e+02,-1.072604614095399995e+02,-9.369141845228064369e+01,-1.122686954794133243e+02,-1.733996070683880077e+02,-6.816393844755509690e+01
-3.094111640902650251e+01,-4.216871183446546212e+01,-1.122759542597424876e+01,3.599350054717208991e+01,-9.999940245002926886e+00,-2.609132270048004187e+01,-1.002549581513800092e+02,-1.069059787659873706e+02,-9.321827920439289983e+01,-1.131495330423330046e+02,-1.765107197477512102e+02,-6.564086805638437738e+01
-3.624990517699346526e+01,-4.646348416480754651e+01,-1.021357898834895295e+01,4.063745563466210342e+01,-1.301965775446620910e+01,-2.778316076235599752e+01,-9.941155163003888617e+01,-1.058008401963290339e+02,-9.251100831689690551e+01,-1.138242381842328683e+02,-1.784922932906551125e+02,-6.312332721451701900e+01
-3.879743079303533193e+01,-4.964823321722143135e+01,-1.085080242472046663e+01,4.348398770669158608e+01,-1.391463912212551968e+01,-2.973165893397239401e+01,-9.895287317593684406e+01,-1.046458387680360147e+02,-9.241489248799720713e+01,-1.154777087935330684e+02,-1.804584745534315005e+02,-6.197019303563918413e+01
-3.759481295901743891e+01,-5.110489001257058561e+01,-1.351007705408691528e+01,4.375702374705858944e+01,-1.202981328153597396e+01,-3.182181592445468254e+01,-9.925073603471803096e+01,-1.036791499514223602e+02,-9.292357664130662442e+01,-1.181513185031243864e+02,-1.827734977602100059e+02,-6.199415908022366040e+01
-3.415740394758575604e+01,-5.070860163637711793e+01,-1.655119768932445012e+01,4.211253034373984150e+01,-8.918298371930619695e+00,-3.319033388158600673e+01,-9.985581437772995628e+01,-1.026025154494676883e+02,-9.330880681694804935e+01,-1.207949915425654979e+02,-1.849831646278705080e+02,-6.188829121037984748e+01
-3.105202523521271729e+01,-4.886435980629840969e+01,-1.781233457161804168e+01,3.993366456343169801e+01,-6.899908592836879073e+00,-3.300012323187448970e+01,-9.991952170197563987e+01,-1.009852475641242648e+02,-9.279442701390652815e+01,-1.222721827816481266e+02,-1.863248729322706083e+02,-6.108460368516304584e+01
-2.998786799294915895e+01,-4.618065605779551674e+01,-1.619278806537796100e+01,3.825637671409437957e+01,-7.337348867287423637e+00,-3.102757346265898519e+01,-9.870895318723145806e+01,-9.862354593073312969e+01,-9.101656794718051913e+01,-1.220776829517792095e+02,-1.862703353634803420e+02,-6.052207191191723012e+01
-3.111619931235822989e+01,-4.315404848843403585e+01,-1.203784917660665954e+01,3.733664555019688436e+01,-1.011159252771261663e+01,-2.765165363204232563e+01,-9.597486210659431549e+01,-9.564647203746723392e+01,-8.815768797516126654e+01,-1.204466219686186577e+02,-1.847838781879112560e+02,-6.127872102555332390e+01
-3.376446417533404798e+01,-4.034755076888750835e+01,-6.583086594083560783e+00,3.713937988666053513e+01,-1.425097033568070160e+01,-2.369800657259239074e+01,-9.209491384296869398e+01,-9.248217737255619397e+01,-8.491638257000512624e+01,-1.182312310055706490e+02,-1.824016118846344909e+02,-6.346476898100961250e+01
-3.758282963604898441e+01,-3.876635998424170282e+01,-1.183530348722082515e+00,3.806193191369209927e+01,-1.886019301050397701e+01,-2.030540809380864431e+01,-8.791051903454530247e+01,-8.967274904971945659e+01,-8.222942491870641391e+01,-1.165283902282113075e+02,-1.801299066419310009e+02,-6.668674523408435562e+01
-4.284553183509929397e+01,-3.961960873030437824e+01,3.225923104266260832e+00,4.092407931524227394e+01,-2.356714387280191048e+01,-1.853684638767757065e+01,-8.429348596586220310e+01,-8.753702043945645528e+01,-8.082133672079534392e+01,-1.161560697194576619e+02,-1.790133543131378246e+02,-7.052354539870844974e+01
-4.959477511134174676e+01,-4.350758191407643949e+01,6.087193196737358036e+00,4.611632995555093117e+01,-2.812535794955064006e+01,-1.896819749588143011e+01,-8.180947725676055882e+01,-8.607409835881512095e+01,-8.100522104460424089e+01,-1.174559833381843532e+02,-1.797212821886187442e+02,-7.429961661203881818e+01
-5.677621102054349222e+01,-5.014529596949016366e+01,6.630915050526134280e+00,5.299631078052175326e+01,-3.170082418137090130e+01,-2.185956185008245356e+01,-8.076945555117359277e+01,-8.531034840706104205e+01,-8.286784129151546097e+01,-1.205122722416463006e+02,-1.826282503477242187e+02,-7.743518206122986669e+01
-6.250773885000449326e+01,-5.887297078949304563e+01,3.634768059985117983e+00,6.025710255535984317e+01,-3.284097788979534727e+01,-2.753880418057874024e+01,-8.134091761223029948e+01,-8.553909485317531392e+01,-8.639712190934945113e+01,-1.252731153047793384e+02,-1.880141949051891856e+02,-8.029076483266733533e+01
-6.528069584936559977e+01,-6.889508489017713089e+01,-3.614389041336845576e+00,6.668582203240016781e+01,-3.048168754933360347e+01,-3.602053481915277899e+01,-8.334826612543672297e+01,-8.700551987488348971e+01,-9.127042259927145551e+01,-1.313272471191838235e+02,-1.957700073724177798e+02,-8.402843592906161518e+01
-6.496278877678508934e+01,-7.894058896371353740e+01,-1.397780018745260655e+01,7.154525630001350578e+01,-2.509199977124160341e+01,-4.614767185651542292e+01,-8.598848317480339176e+01,-8.938900383684563167e+01,-9.661587163597135941e+01,-1.377186545148900052e+02,-2.048949372962599966e+02,-8.959209056687673467e+01
-6.274181381561410120e+01,-8.724414571110078498e+01,-2.450233189600957928e+01,7.455173531084025740e+01,-1.867556583569772855e+01,-5.556460337002243932e+01,-8.796174889080998582e+01,-9.171776269919077151e+01,-1.011603408632954597e+02,-1.430871897090458731e+02,-2.135897036819879986e+02,-9.693691018312131291e+01
-6.022597035739077143e+01,-9.225059921008384833e+01,-3.202462885321466501e+01,7.576103418893363539e+01,-1.357795422873571489e+01,-6.184650431994869990e+01,-8.812779492529460867e+01,-9.292099407592085925e+01,-1.037822785839593678e+02,-1.461958570992210298e+02,-2.201129871021189786e+02,-1.049199549484132206e+02
-5.875403937383762099e+01,-9.355932831049605625e+01,-3.480528893717871597e+01,7.566431710759600548e+01,-1.134854393211022305e+01,-6.384203188327040124e+01,-8.622351158922063519e+01,-9.255867476697173402e+01,-1.041079507122223191e+02,-1.467250741184467415e+02,-2.237135596026482460e+02,-1.118971659588283956e+02
-5.948063566038645433e+01,-9.235539556901473190e+01,-3.287475990914728641e+01,7.544857980468270853e+01,-1.260146155954454272e+01,-6.214772031054175017e+01,-8.299117620487056968e+01,-9.097120792309620185e+01,-1.026385157163871327e+02,-1.455237672449467539e+02,-2.248400375953292496e+02,-1.166482304934223322e+02
-6.346009084288764512e+01,-9.061653502999327259e+01,-2.715644418762347811e+01,7.665887921922843873e+01,-1.745408435069607478e+01,-5.827895176001946709e+01,-7.947342083653562383e+01,-8.865563500022273047e+01,-1.002090292077327405e+02,-1.437416880722607857e+02,-2.244644915501700950e+02,-1.187553969822128153e+02
-7.113723393591330080e+01,-8.968104971559952787e+01,-1.854381578020306875e+01,8.019013010365748073e+01,-2.568902635359429354e+01,-5.341924760125544935e+01,-7.613478475315970684e+01,-8.566495633982461300e+01,-9.732228067166178676e+01,-1.418318290947984792e+02,-2.232424776813344920e+02,-1.182457113198734504e+02
-8.169306270452054264e+01,-8.967510884251838377e+01,-7.982046138513750222e+00,8.563055775506587963e+01,-3.638522987101128336e+01,-4.811920934440928477e+01,-7.277853213674332267e+01,-8.177564906627723929e+01,-9.403755939565596123e+01,-1.395858542810009908e+02,-2.213513939152135492e+02,-1.153240001036471654e+02
-9.280205862915677528e+01,-8.995755766670515641e+01,2.844500961936641037e+00,9.139918044564439015e+01,-4.749517256062206627e+01,-4.287075158352823934e+01,-6.921422248415599654e+01,-7.707675869647354716e+01,-9.036762400798839678e+01,-1.368217343661904408e+02,-2.189473748419669903e+02,-1.108049241762171278e+02
-1.014663046440226282e+02,-8.984635198148089330e+01,1.161995266202773713e+01,9.561358473323630847e+01,-5.635319524119520906e+01,-3.846952101789387513e+01,-6.572919404784649089e+01,-7.220670623912137387e+01,-8.662320325147618405e+01,-1.337436844861626355e+02,-2.165314138333732501e+02,-1.063358753303261608e+02
-1.057253211352205824e+02,-8.911908679229610186e+01,1.660623434241160723e+01,9.723942062952858123e+01,-6.113672784708602848e+01,-3.569220497992185415e+01,-6.282517643275409114e+01,-6.801431389538622341e+01,-8.328474725724478844e+01,-1.307388303375891212e+02,-2.147545110782762663e+02,-1.034179589536622927e+02
-1.057026039544649620e+02,-8.793175006450603348e+01,1.777085388944733069e+01,9.652631196505616629e+01,-6.192016578752817679e+01,-3.465308291181295886e+01,-6.063526323578829391e+01,-6.502651087269057939e+01,-8.057428105871052537e+01,-1.280636469336299115e+02,-2.138845800070587586e+02,-1.022340924242580940e+02
-1.032067012339775118e+02,-8.648178473993485227e+01,1.672491649353251120e+01,9.454858536459710194e+01,-6.039205610209801023e+01,-3.462349882357583652e+01,-5.876461764356742634e+01,-6.326039136310794220e+01,-7.833065640469736479e+01,-1.258280518989248122e+02,-2.136259882023092302e+02,-1.015528669193279114e+02
-1.002961088079277943e+02,-8.494875162438687255e+01,1.534735718303235075e+01,9.241531002063207723e+01,-5.844457447430841768e+01,-3.470957442416191441e+01,-5.674908886598957736e+01,-6.253319711073947218e+01,-7.637040139171614328e+01,-1.241846373350548873e+02,-2.135716140481224272e+02,-9.962910296129861365e+01
-9.779789152076104131e+01,-8.353060667670010275e+01,1.426728484355407289e+01,9.058176832136479106e+01,-5.673531308984529886e+01,-3.466283308211151137e+01,-5.461592899397525969e+01,-6.285183962625710308e+01,-7.483273781675347891e+01,-1.234017193237090453e+02,-2.136954506841337320e+02,-9.554661437414401348e+01
-9.500962862942488130e+01,-8.225722154965264110e+01,1.275240707926714023e+01,8.865083280201982063e+01,-5.453188159854062178e+01,-3.484362226271157681e+01,-5.293247199285713833e+01,-6.438090376347801680e+01,-7.407671756228994298e+01,-1.237328241420879067e+02,-2.142701197212195439e+02,-9.027628497389561346e+01
-9.061453043106952521e+01,-8.073723514349747177e+01,9.877295287068754703e+00,8.572747089683952026e+01,-5.074594599380177584e+01,-3.549846579624856702e+01,-5.223766843061939369e+01,-6.702351908168363082e+01,-7.428718602242727798e+01,-1.252272597720914717e+02,-2.154154072813875018e+02,-8.661951742037727797e+01
-8.376881951421268013e+01,-7.821471059419056360e+01,5.554108919520623466e+00,8.101559872962232589e+01,-4.494618169478367520e+01,-3.628427478873185663e+01,-5.242704968079903693e+01,-7.012014899078141639e+01,-7.517305853471737009e+01,-1.275332287398816504e+02,-2.168392935368323435e+02,-8.714537868607223459e+01
-7.483626498252380088e+01,-7.397401823147988864e+01,8.622467505441462343e-01,7.438372210678917895e+01,-3.787131818519847570e+01,-3.634184015902571474e+01,-5.270089505286483700e+01,-7.259287773262558119e+01,-7.595624933240293331e+01,-1.298004642444314243e+02,-2.179080340178690278e+02,-9.117880324891542898e+01
-6.561310572697937005e+01,-6.781749787383277805e+01,-2.204392147351459386e+00,6.668313019445557188e+01,-3.145475414337879982e+01,-3.465417772600137170e+01,-5.202455903137463622e+01,-7.343188760147721439e+01,-7.574935709888607960e+01,-1.310565030859684157e+02,-2.179402860824368418e+02,-9.475446149285021136e+01
-5.849450716651600146e+01,-6.049582282819596202e+01,-2.001315662176265331e+00,5.951458157464684007e+01,-2.778507924927847128e+01,-3.082393428547505110e+01,-4.982644546849405032e+01,-7.237671713585827149e+01,-7.424856860026348215e+01,-1.310568393323883924e+02,-2.167736319534016047e+02,-9.417243365618520556e+01
-5.503845524408023948e+01,-5.368764793599203244e+01,1.350807307593691053e+00,5.446627824795152151e+01,-2.762239694071405793e+01,-2.573357089120964858e+01,-4.643763530321422905e+01,-7.026182600042631066e+01,-7.199962444793710858e+01,-1.306346309259043039e+02,-2.150453788023621371e+02,-8.859707655717437547e+01
-5.544661778952221454e+01,-4.892172607845740373e+01,6.524891710572178205e+00,5.232820388902912612e+01,-3.038873567522017538e+01,-2.076836931463047975e+01,-4.267893659921318772e+01,-6.833916459048514014e+01,-6.962556709733240723e+01,-1.306959381910846787e+02,-2.133953459486438646e+02,-7.938444068493511452e+01
-5.876345129963078762e+01,-4.622332191975007731e+01,1.254012937939005568e+01,5.259322606871612038e+01,-3.508985912369217885e+01,-1.641659614788792254e+01,-3.921375633965975993e+01,-6.725868146756184274e+01,-6.686667382825058326e+01,-1.307616408116626303e+02,-2.114328539309435939e+02,-6.851469041465840348e+01
-6.326398606388048762e+01,-4.422421701624562473e+01,1.903976904714626173e+01,5.375376456508102052e+01,-4.068541100508524266e+01,-1.220244650080761772e+01,-3.654477988927477838e+01,-6.676131176223523767e+01,-6.235337094392894386e+01,-1.284085978038337998e+02,-2.077213149917343173e+02,-5.809979750779766050e+01
