-8.042919550941238782e+00,2.845866741882019380e-01,8.327506225101384274e+00,3.286030385248499996e+00,-8.765212570384971258e+00,3.733523383289593767e+00,1.851396097338655622e+01,2.714224914062175387e+01,1.406797581944188025e+01,-1.406303450667311594e+01,-3.778188907590146073e+01,-2.910377389338808740e+01
1.625967686172788973e+01,5.219749942699225542e+00,-1.103992691905651213e+01,-1.133565351554077694e+01,1.063795044451580551e+01,-5.914567186421862743e+00,1.862388706970708085e+01,1.759936680946448107e+01,9.324134138175262265e+00,-1.412313146160193611e+01,-3.799182179236191814e+01,-1.071375459493385449e+02
-1.311731060236675006e+01,-2.888441874009626176e+01,-1.576710813775713405e+01,2.284211920938995632e+01,7.611943406561287873e-01,-2.532220026158238113e+01,4.094441083582085028e+00,8.058496178514658936e+00,-1.005828410256396310e+01,-3.370224082893651030e+01,-4.796154350176968961e+01,-7.293130044116624333e+01
-4.249387521911560128e+01,-5.810791630188934676e+01,-1.561404108280114755e+01,5.213934377820052646e+01,-1.399547599613558546e+01,-3.984937645075782342e+01,-6.743760747091300800e-01,-1.480354005753902413e+00,-2.455927217215902658e+01,-5.816035213378992097e+01,-6.281104443244413460e+01,-1.021650388118032140e+02
-8.651001023731012651e+01,-6.781073962630408403e+01,1.869927061097888199e+01,7.655601537202417717e+01,-5.315205567313620350e+01,-2.509609632780170330e+01,4.317436493501970673e+00,1.338282498819463129e+01,-1.465882332812071276e+01,-5.821745484637206403e+01,-6.302031473557676833e+01,-1.021187623672204694e+02
-8.172570883570972455e+01,-7.751288551828410789e+01,4.212823317398701306e+00,8.145212909596095585e+01,-4.350853976582713045e+01,-3.962236041919623375e+01,-4.501203177700023872e-01,1.848804188089141931e+01,-1.451693080346921150e+01,-5.339353836050775470e+01,-6.322934447254527868e+01,-3.863247227127120453e+01
-3.790096408914114789e+01,-6.281435068136431710e+01,-2.491338659224981456e+01,5.218767995100530044e+01,-9.464923295370695655e+00,-4.438816919899991120e+01,-5.217045616486206683e+00,2.359530537533565564e+01,-1.925358780457614216e+01,-5.344859198404046907e+01,-6.831812360745693979e+01,-4.346616956192517023e+01
-5.751576896644789372e+01,-6.763513171063061691e+01,-1.011936274420909854e+01,6.196266282926738711e+01,-2.422120122937915099e+01,-3.939352308332045993e+01,4.656661489617811789e+00,3.358462414618544756e+01,5.291212485762014417e+00,-4.374260494017106993e+01,-6.364664200397071170e+01,5.001448120562859145e-01
-7.225011634460265952e+01,-5.781522509566336510e+01,1.443489124891320863e+01,6.685707252250540478e+01,-4.385736849409288141e+01,-2.463842242668983573e+01,9.651001892855996189e+00,4.357600682847035500e+01,2.007747689906873134e+01,-2.427556637497774261e+01,-4.921488942544710454e+01,-7.265353004080127164e+01
1.549600098240856028e+01,5.685372767486320811e+00,-9.810628214948035719e+00,-1.120909626696447248e+01,9.706580022473318081e+00,-5.002867529373396849e+00,2.928597647828407702e+01,5.844946200392356417e+01,3.486521226147176833e+01,9.832534625555041430e+00,-2.502285554365517584e+01,-6.772719495665903366e+01
3.492259027949002359e+01,2.526666554435386303e+01,-9.655924735161629968e+00,-3.071584889776882221e+01,1.935064946263024410e+01,4.873141343911576051e+00,2.940158610973585596e+01,5.868499818493468467e+01,3.989442536970710762e+01,4.901709007572726762e+00,-1.547052995888856231e+01,-6.768085069219361571e+01
4.458965881829259104e+01,3.508865691300444212e+01,-9.501001905313323448e+00,-4.046319073815929812e+01,2.411484497257467297e+01,9.869603941949112169e+00,3.927783161443241511e+01,5.892262380087539242e+01,4.492512297187425219e+01,1.949196772138509459e+01,-1.079790222436016478e+01,-2.859449790708091754e+01
3.473721383029854337e+01,1.563135052495768917e+01,-1.910586330536570898e+01,-2.581112712229991857e+01,2.399917167594986012e+01,-4.653479988367891451e+00,3.451471377139317553e+01,5.428234719155287991e+01,2.555731175722094051e+01,1.944332170348177158e+01,-1.588496186394230847e+01,-9.028137175952279492e+00
-4.394737507294571799e+00,-2.334525000299003494e+01,-1.895051249572000884e+01,1.324033666112186225e+01,4.363634664043374300e+00,-2.405611070316988531e+01,2.487223330650111919e+01,3.988417660874063131e+01,1.107099835876045546e+01,-5.004218130996104463e+00,-4.537169837612177048e+01,-3.338176901698859211e+01
-5.328618805146463444e+01,-6.720114106366921192e+01,-1.391495301222881409e+01,6.205119534605903908e+01,-2.015176099690222955e+01,-4.345828844658129242e+01,2.011039089564828330e+01,3.524812022483692431e+01,1.122618936777077003e+01,-1.481064088295111247e+01,-5.045810122179304358e+01,-5.773539390672880245e+01
-3.385713065043894687e+01,-3.785631901590252824e+01,-3.999188365487551522e+00,3.766144364487838203e+01,-1.538701024554400831e+01,-2.382001342856141335e+01,3.486918717168285298e+01,6.477418614199518743e+01,2.602289134781582547e+01,-2.159356540438039929e-01,-3.602415980492160941e+01,-5.768901226778270086e+01
1.973244188829757206e+01,3.052921984011396006e+01,1.079677795179269140e+01,-2.576892378112892601e+01,4.017891992804916157e+00,2.021871418346852778e+01,5.938862272327430958e+01,1.040623823855639785e+02,6.522111083260217868e+01,3.877990845908398398e+01,-6.949863466042543791e+00,-2.836262444988874520e+01
4.892253678578464360e+01,4.035547923894179689e+01,-8.567057546866308826e+00,-4.527991230369951836e+01,2.830295080492887294e+01,1.545789424590187799e+01,5.462869807999213378e+01,1.043127168747062683e+02,6.538085430339275206e+01,3.385690234776663488e+01,-7.155201497150962098e+00,-2.343623072998630263e+01
-1.460683874772744950e+01,-8.377537096312384080e+00,6.229301651391843109e+00,1.328847271612057845e+01,-1.085182872674856647e+01,-3.942473388809588641e+00,4.498941369548198566e+01,9.480519738921275064e+01,5.578212816118923456e+01,3.381505686571400560e+01,-1.712016316277279060e+01,-8.749831330351783620e+00
-9.765567751976827537e+01,-5.710982546550866346e+01,4.054585205423659744e+01,7.673622593746911491e+01,-6.952644152541165568e+01,-8.702388880422514461e+00,4.999076994252466477e+01,9.505983155485071734e+01,5.594493871364822013e+01,2.889438281576829226e+01,-1.244473770915190158e+01,-2.334342643720995270e+01
-1.123839723013165326e+02,-1.009613821502217661e+02,1.142259015107198117e+01,1.060233419916429796e+02,-6.476088248592276386e+01,-4.762185238635218099e+01,3.059276711807738991e+01,6.603662684772413627e+01,3.170929217910818920e+01,4.454890952346030275e+00,-2.728891436155393890e+01,-8.185701620270792489e+01
-3.927171575773418510e+01,-4.721220335537701374e+01,-7.940487597665416786e+00,4.258981541886275579e+01,-1.607514643423795775e+01,-2.798086403761619323e+01,4.535540545069001439e+01,7.605559060813777705e+01,4.651519469821975861e+01,1.417659199338554998e+01,-1.285268231871848599e+01,-6.229060072169449569e+01
2.408109956373087357e+01,1.657714814411198390e+00,-2.242338474934201997e+01,-1.108435934932665390e+01,2.285077187372213814e+01,-1.321942392143392908e+01,4.547868510506883410e+01,8.607673005350690687e+01,4.668265234319689228e+01,2.877949663134187830e+01,-8.176030751114723216e+00,-2.320418000469691577e+01
4.839448117798845317e+01,1.636837632478368221e+01,-3.202610485322686174e+01,-3.059918794775889950e+01,3.737687771089379396e+01,-8.217532083316495317e+00,5.048260617998383992e+01,9.610005227890464141e+01,5.173167111803355311e+01,3.362361553134498848e+01,-3.498948806328264993e+00,-3.779775397894400157e+01
3.366843658998705280e+01,2.131978516018832082e+01,-1.234865142982054920e+01,-2.571467601728413399e+01,2.262317633266248862e+01,1.664811457532268335e+00,5.060716870237229870e+01,1.012455642457216243e+02,6.166225695206298951e+01,3.358895931937345125e+01,1.178574381748589417e+00,-4.263132250697756120e+01
3.846297325396751887e+01,1.651194528954385277e+01,-2.195102796444524529e+01,-2.571082916817427488e+01,2.738967295374765598e+01,-3.092393305759555844e+00,4.585237262334267427e+01,1.161532727674697441e+02,6.183441569161328744e+01,3.355553857280320784e+01,-8.783450313897404271e+00,-7.186488539052761837e+01
1.397809856694221153e+01,-7.815139342903356656e+00,-2.179323790986688181e+01,-1.307652972524083523e+00,1.751637274647838183e+01,-1.760914637362711233e+01,4.597821781798045038e+01,1.261831844951077528e+02,6.688815309166017187e+01,2.864336381760932682e+01,-4.105012014986300528e+00,-4.253844235727467549e+01
-5.626180119287869985e+00,-1.262146480818450911e+01,-6.995284688917696059e+00,8.454847025284792039e+00,-2.116719151899175699e+00,-1.260544773645720085e+01,5.098470408705451007e+01,1.313353059009370440e+02,7.682347480842832965e+01,4.325244552841816414e+01,5.739001633206655129e-01,-6.201199304998876727e+01
1.381014452148914984e+01,2.092972823440336860e+00,-1.171717169806961323e+01,-6.183334708534207635e+00,1.241040237236342847e+01,-7.601297367649902270e+00,5.599183115634566832e+01,1.413696432634445728e+02,8.676038639056417878e+01,5.786279412427913371e+01,1.501329710988299837e+01,-5.708553702470040747e+01
5.764707979858388853e+01,1.680817748807173473e+01,-4.083890231053268138e+01,-3.546220370383147724e+01,4.645774241539758975e+01,-1.235669522191000524e+01,4.635959867312190852e+01,1.416462026549946813e+02,8.205889326792902239e+01,6.759441995540279891e+01,1.969318970791177037e+01,-3.263907375219898199e+01
9.172463298266939091e+01,1.688415311807226971e+01,-7.484047986461737878e+01,-5.498176547083713928e+01,8.050530603925581374e+01,-3.175164123496503521e+01,4.160800620546486073e+01,1.321649899337957947e+02,6.759900074466844444e+01,6.268733328609398825e+01,9.733588823398093837e+00,-6.187260262285882817e+01
3.308281126693087515e+01,-2.559096369934780402e+00,-3.564190763688566221e+01,-1.594202547449321372e+01,3.159309823976274956e+01,-2.186613531662911569e+01,4.661705324682436213e+01,1.324460107429940194e+02,7.754071400178617068e+01,5.778154428433815326e+01,1.441450529972077987e+01,-4.718612295098995446e+01
-2.067837824373912525e+01,-2.481567074708449283e+00,1.819681116901092466e+01,1.333701087172545741e+01,-2.219887606376764566e+01,7.539822655181933619e+00,6.626673921819516977e+01,1.571292705126155624e+02,9.236403810114178725e+01,7.727706301946649603e+01,3.861594995605588565e+01,-3.219633977762597077e+00
4.268107149876065876e+01,4.151674489519461986e+01,-1.164326603585568165e+00,-4.034466181272757268e+01,2.160938800016456440e+01,1.742623282427226883e+01,7.127706345983462199e+01,1.671747744524734287e+02,9.742897797946280036e+01,7.237389945886894793e+01,4.329793357817975163e+01,-4.221313488411446713e+01
9.628116750678283609e+01,5.623584341036600165e+01,-4.004532409643613988e+01,-7.450704888164857209e+01,6.541789528108940033e+01,7.793095334103158578e+00,6.652802521679964798e+01,1.723425275341375027e+02,1.024955384347491645e+02,8.211206345995090317e+01,4.310046690166538497e+01,-5.680662480270727599e+01
1.206019167233060330e+02,7.583573228904948849e+01,-4.476618443427562966e+01,-9.891015563023168511e+01,7.994665058820197601e+01,1.280041031285957764e+01,7.641962362876098780e+01,2.019125344705246334e+02,1.173237241131502202e+02,8.697156476161285354e+01,4.778356059888098173e+01,-7.140010280659048192e+01
1.058833259631145722e+02,6.615641526469322287e+01,-3.972691069844018585e+01,-8.427398724895500948e+01,7.007565864822895207e+01,1.292817787040043243e+01,7.655185772504555075e+01,2.168447996935831839e+02,1.272735394958387189e+02,8.695241297667868707e+01,5.246722527264255120e+01,-5.671356788550571792e+01
7.164540188059716286e+01,5.159789596966272285e+01,-2.004750591095301004e+01,-5.987854879885696846e+01,4.556492408183384413e+01,1.305639809806005758e+01,7.668472642015294127e+01,2.268993273272208455e+02,1.421049888825556309e+02,1.015746175843217429e+02,6.203147145034111531e+01,-4.690701893455050708e+01
5.204815097890130460e+01,4.192017793844274109e+01,-1.012797304047686353e+01,-4.524384521818540605e+01,3.081445141044498115e+01,1.318507106749838087e+01,7.193822851069725743e+01,2.271961211626056070e+02,1.471780763732502635e+02,1.161981879201120762e+02,7.159630957474142576e+01,-1.758045476233199977e+01
4.221157964190419420e+01,2.736326462319723873e+01,-1.484831501872496773e+01,-3.548988134663387939e+01,2.582424507924559265e+01,3.554196830976451338e+00,6.231236267710143295e+01,2.226151846439212534e+02,1.424928058525704273e+02,1.015431331627340228e+02,6.164174999335375560e+01,-2.893874113856948149e+00
9.093569415952720192e+01,1.280715941313102135e+01,-7.812853474641387663e+01,-5.013666194720012470e+01,8.427430947255751903e+01,-3.535622457123830742e+01,3.804712749242106895e+01,2.033965208664784825e+02,1.280491809833816887e+02,7.712946232783207279e+01,4.192780295445966487e+01,3.619272429754644804e+01
3.230050073118277254e+01,8.011865654325443842e+00,-2.428863507687471213e+01,-2.086419171711008147e+01,2.560464890783337921e+01,-1.082619309253422202e+01,6.258252143687157343e+01,2.281001325833798035e+02,1.477672052097914843e+02,1.063971842761155671e+02,6.613447861359510682e+01,1.671934175592986804e+01
-3.121399452792757501e+01,3.217386667196044936e+00,3.443138119510660289e+01,1.328752470078412173e+01,-3.306473236654908021e+01,1.858429133410358247e+01,7.247854290569934221e+01,2.528060222064750349e+02,1.577268817582690303e+02,1.307863077181334859e+02,8.546178703670483401e+01,2.125979520310117721e+00
6.143221444515315000e+01,1.794372575681857285e+01,-4.348848868835123938e+01,-4.040151730242474315e+01,4.978616985550433327e+01,-1.544477121028921829e+01,6.285519020231564014e+01,2.433541917911528287e+02,1.432882136297309899e+02,1.014968412014589489e+02,7.062973818855961383e+01,-1.246736117350202733e+01
3.695913368264499610e+01,1.315088621374635203e+01,-2.380824746891494925e+01,-2.577132231214412172e+01,3.015735975889074183e+01,-5.553380641317515298e+00,6.787246152857736092e+01,2.631846430158979047e+02,1.630112035911489841e+02,1.112487930978711006e+02,7.531834191927099198e+01,-3.682067909253390781e+01
2.712676917283577183e+01,2.299887130864677687e+01,-4.127897864204964407e+00,-2.578189488076024460e+01,1.540884149654679547e+01,9.218463129519953725e+00,8.265035498077114084e+01,2.878973771656488907e+02,1.680958541700069873e+02,1.210021716033701580e+02,8.488760796031233724e+01,3.642602701181537839e+01
4.169512684688486104e+01,3.772768428455958656e+01,-3.967442562340888657e+00,-4.043323951716489972e+01,2.018061917963563445e+01,1.423076019319967145e+01,8.278886854369517323e+01,3.028523951103983904e+02,1.927021676430514958e+02,1.356369847362885253e+02,9.445754592101434355e+01,6.087275839419508117e+01
3.674421257988672096e+01,2.317732834725258684e+01,-1.356688423264938947e+01,-3.068536068246073256e+01,2.495269688342045811e+01,4.603510632985257978e+00,7.804800008141219791e+01,3.129296972771346645e+02,1.977901460169578058e+02,1.405132403244659542e+02,8.938816527935483691e+01,7.239516279102323537e+00
7.083403218717958794e+01,3.790780665747733025e+01,-3.292622552971717909e+01,-5.509826278423908263e+01,4.924507864790846412e+01,-1.432854810076733543e-01,7.818774733275546396e+01,3.278892836241560644e+02,2.126397910066177701e+02,1.502709459890955941e+02,9.895947537322342669e+01,-2.473698157729829372e+00
1.146845914049661701e+02,6.727912232417435234e+01,-4.740546908080639810e+01,-8.927195016372645853e+01,7.841776846233214826e+01,9.750371911309033024e+00,8.808810791158722964e+01,3.428511536196610905e+02,2.274911040148499239e+02,1.795501091285674704e+02,1.231714853926351623e+02,7.077311622200343777e+01
1.487758958504926170e+02,9.665127838579299180e+01,-5.212461746471379342e+01,-1.234464270672425670e+02,9.783077023536917238e+01,1.964448286121463738e+01,8.822907930467962956e+01,3.431753062217596266e+02,2.374640861125827485e+02,1.893107368970805453e+02,1.278642043652885434e+02,5.617996051625371479e+01
1.438279509708175112e+02,8.698427777829991214e+01,-5.684367319253136941e+01,-1.137016976052978379e+02,9.772408776060809998e+01,1.489904740479147449e+01,7.861065886721746665e+01,3.435017398627607008e+02,2.327987380204622241e+02,1.893128361794500449e+02,1.276776411373686813e+02,8.062683575212297171e+01
1.047207620082174202e+02,5.779812331174242246e+01,-4.692263869648831331e+01,-7.955776572404899127e+01,7.321772469389779303e+01,5.274065556536132959e+00,7.875284382257851234e+01,3.389504524420112261e+02,2.281350600980611887e+02,1.844364135735178252e+02,1.323718043600534031e+02,8.555374285679363311e+01
9.001433400219426062e+01,6.277281767248061328e+01,-2.724151632972652948e+01,-7.469463520812753643e+01,5.847168455398900733e+01,1.516953731010057282e+01,7.889563126686665839e+01,3.539214413244371826e+02,2.381130523421189196e+02,1.990814753839696039e+02,1.419467024826740840e+02,2.216068264604669835e+01
1.289886718128729228e+02,1.019083634354004317e+02,-2.708030837748492559e+01,-1.137523096991538836e+02,7.788597073886258215e+01,3.482546263903230965e+01,8.879901817154231480e+01,3.835347033343267071e+02,2.578527143843031126e+02,2.186080276166247813e+02,1.612823437439728025e+02,5.148765583512199129e+01
1.338037801296612201e+02,1.068847630575863121e+02,-2.691901707208688777e+01,-1.186507926971369784e+02,7.778058653635254416e+01,3.984184148705608663e+01,8.406300138082318085e+01,3.887502347362750470e+02,2.580740454799356485e+02,2.186160759641680045e+02,1.562187361576549165e+02,6.129466305908566426e+01
1.630196634532882456e+02,1.069820188544041457e+02,-5.603764459889571015e+01,-1.333100875395310538e+02,1.069555351181312801e+02,2.533867375312579284e+01,7.932757760813312586e+01,3.939680312099463890e+02,2.582970444929150062e+02,2.039856257909271164e+02,1.609158874984155432e+02,5.646170487655982839e+01
1.775963260664333916e+02,1.168401329798612096e+02,-6.075619308658347961e+01,-1.479701973764876755e+02,1.166108195213345624e+02,2.547595928550747857e+01,8.435274343635310856e+01,3.991880878314869392e+02,2.682817098858633926e+02,2.137566821285821561e+02,1.607338052946198843e+02,8.578878175776519299e+01
1.482537720081565169e+02,9.253910741932408257e+01,-5.571466458884340511e+01,-1.187111251537127146e+02,1.018664426273339956e+02,1.585369788727053297e+01,8.449849531949752190e+01,4.092903990625405299e+02,2.831480397126490516e+02,2.332892496771017079e+02,1.751924968243096714e+02,7.119589407066231956e+01
1.335520050663909331e+02,8.287894399364408571e+01,-5.067306107275734206e+01,-1.089728736100583717e+02,9.200240715144221326e+01,1.599188932510552519e+01,8.464482958201236329e+01,4.096349587406871251e+02,2.882560316061524190e+02,2.528233327952179366e+02,1.896519691069306361e+02,1.005230420675680136e+02
1.237310287932521504e+02,6.345964437516527568e+01,-6.027138441809694314e+01,-9.435544529270185876e+01,9.189871564877994103e+01,1.490533337666136049e+00,7.503174241807278122e+01,4.002217600717786468e+02,2.836056827641270957e+02,2.381989354804420600e+02,1.845922288893543453e+02,1.249702258689195986e+02
1.187908465279520271e+02,5.868121010991095687e+01,-6.010963641805076918e+01,-8.949884257897844009e+01,8.691537052537147190e+01,-3.250370354663660422e+00,6.541922989563327917e+01,3.956907956294014070e+02,2.935969899402883811e+02,2.479760613538305165e+02,1.990532826323739357e+02,1.152574454403840605e+02
1.724114614078269483e+02,8.806364263406432258e+01,-8.434781877377193382e+01,-1.285630676896562647e+02,1.258523740416338228e+02,1.769177960947679651e+00,6.556728796570601503e+01,4.009220573605158506e+02,2.987099494392015231e+02,2.577547136542566477e+02,2.135151364995753056e+02,1.153047005723438474e+02
2.016328763527446597e+02,1.223269432704827153e+02,-7.930593308227084037e+01,-1.627481226798680893e+02,1.403897282997029379e+02,2.142917799431609893e+01,6.571591247163814842e+01,4.110355365887156154e+02,3.038245571092667205e+02,2.772948952307781383e+02,2.279777963424049005e+02,1.007119908745943349e+02
2.210950940233647657e+02,1.321911132009668677e+02,-8.890398082240641031e+01,-1.774140094048472349e+02,1.549274352155479448e+02,2.156962944489401934e+01,6.098509915411004556e+01,4.211512240089264196e+02,3.138208083333231571e+02,2.773166085269204473e+02,2.278012676809568973e+02,1.153993157819744937e+02
2.307981167751201497e+02,1.420561534304478073e+02,-8.874196334468049940e+01,-1.872007294785323097e+02,1.597054964896584863e+02,2.659053198824195618e+01,6.113484365375597918e+01,4.312691096749706503e+02,3.140586980187773634e+02,2.822198555640083555e+02,2.325055556880876679e+02,1.154466745580961486e+02
2.112219466283589213e+02,1.226420647630562399e+02,-8.857988186531056840e+01,-1.677082842459554399e+02,1.498439135881898778e+02,1.697188526677776821e+01,5.640514151425892209e+01,4.316291829852278852e+02,3.094182205896279356e+02,2.773646379311489909e+02,2.323306651806589400e+02,9.597406629431948488e+01
2.306865852579754517e+02,1.471488477943531166e+02,-8.353773746362993791e+01,-1.872566747741689994e+02,1.546226877364666450e+02,3.175368888718017146e+01,4.191598818734632914e+01,4.417514326706680663e+02,3.194193699827682167e+02,2.920309567809179612e+02,2.467966006141073194e+02,1.887414899039747525e+02
2.550320339892193715e+02,1.570165029073616267e+02,-9.801553108186517704e+01,-2.068059018488752372e+02,1.740418199177149177e+02,2.701594241874241931e+01,4.694737904111224935e+01,4.469958467852585500e+02,3.391821396438091369e+02,3.164588128221895431e+02,2.612633660736848924e+02,2.034289440947175365e+02
2.696182937820952930e+02,1.717650302595660321e+02,-9.785326352253659365e+01,-2.214759659605960564e+02,1.837013108651391065e+02,3.691864538887303127e+01,3.733930936928971533e+01,4.376024126977940796e+02,3.345465225157712439e+02,3.213682063029831397e+02,2.659709652595188913e+02,1.644364273199677768e+02
2.793253652048271647e+02,1.816344297627786091e+02,-9.769093544205587420e+01,-2.312668672808596568e+02,1.884811610454411266e+02,4.194179727669423130e+01,2.773177439909574460e+01,4.184511170903775792e+02,3.347925110258704535e+02,3.165191369895036360e+02,2.657994014707195447e+02,1.352039377541170211e+02
2.695132484111248914e+02,1.671047010658573129e+02,-1.024085473452747408e+02,-2.166586056417132511e+02,1.835013706437657106e+02,3.232539750664005851e+01,2.300476930050202284e+01,4.041819459697334196e+02,3.204000970808596094e+02,3.165516041542115317e+02,2.705086775951906475e+02,1.450114733109934662e+02
2.743419431298084419e+02,1.623358435483557969e+02,-1.120060995814597362e+02,-2.166911805280686565e+02,1.931619395562505588e+02,2.270944544680692800e+01,2.803828919645496853e+01,4.045548846870728994e+02,3.206492720723487651e+02,3.214656065738736288e+02,2.703387961046679493e+02,1.352990316718343422e+02
2.157314486691679178e+02,1.429278563274820328e+02,-7.280359234169296201e+01,-1.776845910847836194e+02,1.442628673911327724e+02,3.261394041443435299e+01,1.843232916929260767e+01,4.098099179541542298e+02,3.160200268859271659e+02,3.215011425290364855e+02,2.848097590502317757e+02,1.304666102989973240e+02
2.010417639412864901e+02,1.284007382745624000e+02,-7.264102566673120975e+01,-1.630788361380021740e+02,1.344041534845906369e+02,2.787888168138463740e+01,1.370688426478340816e+01,4.053070298488809726e+02,3.211523519079053131e+02,3.312982098006464184e+02,2.846415680549656031e+02,1.646742064392141174e+02
1.863528875025252773e+02,1.187544880362588202e+02,-6.759839946627367624e+01,-1.533539142260011090e+02,1.245457969308458814e+02,2.314426847534392451e+01,8.981949498541382582e+00,4.008062038156684821e+02,3.116462370282512211e+02,3.166968056657154875e+02,2.795942243056633743e+02,2.135218171111565368e+02
2.204648175868759949e+02,1.335091040534070146e+02,-8.695571353347627053e+01,-1.777898236243312624e+02,1.537277966070363959e+02,2.329009998149758687e+01,-5.502480134707532500e+00,3.914274226686585507e+02,3.070216716435255648e+02,3.118569268972639179e+02,2.794277285492888154e+02,2.135694390692351305e+02
2.643375521084138882e+02,1.629045845655931828e+02,-1.014329675428281803e+02,-2.119865623481388184e+02,1.829101511733695418e+02,2.831637534563126479e+01,-5.346409649958573596e+00,3.771706686006361906e+02,3.023986446631397484e+02,3.167785697704397307e+02,2.792620810946618235e+02,1.989770687635943318e+02
2.838110886295235673e+02,1.923009275933865752e+02,-9.151016103614462338e+01,-2.364241281273914410e+02,1.876928590490314832e+02,4.798309367247750856e+01,1.921015593638606944e+01,3.970759231943192162e+02,3.270571445146636052e+02,3.412217300657835608e+02,3.083772818117677730e+02,1.795047023253019347e+02
2.837654243158131067e+02,2.070581309034584194e+02,-7.670729341236250320e+01,-2.462225183678403937e+02,1.778359183838174431e+02,6.277025401407898642e+01,1.936721160294630906e+01,3.828231674284164114e+02,3.224371591400960142e+02,3.363864030606072220e+02,3.130933301206066517e+02,1.405123355814866386e+02
2.837205559043371181e+02,1.974161919736987727e+02,-8.630436393064634615e+01,-2.413817301176874821e+02,1.826193270444979930e+02,5.315785535149618113e+01,9.764752311236254201e+00,3.588123816803541786e+02,3.080586759869065645e+02,3.364325835151411184e+02,3.080502249729108826e+02,1.844799640833100511e+02
3.031964796898824943e+02,1.877751079749701830e+02,-1.154213717149203262e+02,-2.463017600504115308e+02,2.069230826116425135e+02,3.378589658364457904e+01,1.627730006657088779e-01,3.348035457399341794e+02,2.936816820085806512e+02,3.218402656667601605e+02,2.981279648409922061e+02,1.894075831201536175e+02
2.885131915169569083e+02,1.732548757733007676e+02,-1.152583157436643404e+02,-2.317026044609046096e+02,2.019471823712131879e+02,2.905437653324433711e+01,5.201268594949688406e+00,3.156766388381993238e+02,2.793061636794233209e+02,3.267694432346654594e+02,2.979665477198971075e+02,1.650551877114627928e+02
2.445506867784321798e+02,1.831354919425332923e+02,-6.141519483590709427e+01,-2.122242592711137377e+02,1.530516233061586036e+02,5.848329395942444364e+01,2.000023400804191098e+01,3.209516396791482862e+02,2.844521070141148016e+02,3.219401094274159050e+02,3.075659711338397528e+02,1.407027726023948730e+02
2.591489604322484297e+02,1.832569527736460486e+02,-7.589200765861062337e+01,-2.220267200437632198e+02,1.675964021070211061e+02,5.375264755796658989e+01,1.039966414103563608e+01,3.067085264619408917e+02,2.700794975825098732e+02,3.073522569490307887e+02,2.976462321378795650e+02,1.602703322794315852e+02
2.395880070271504962e+02,1.638592542774168237e+02,-7.572875274974205695e+01,-2.025499819970254975e+02,1.577415151953783550e+02,4.414243595061504521e+01,5.679553876686824765e+00,2.924672768945430334e+02,2.605883205201564579e+02,3.122858780065170095e+02,2.877273273181713193e+02,1.603178609859920698e+02
2.249078207217677061e+02,1.542223921904134727e+02,-7.068542853136270310e+01,-1.879540400168147585e+02,1.478869587396790450e+02,3.941265768104116773e+01,-3.920101918457518764e+00,2.733478682092702456e+02,2.413385605416648332e+02,2.879409643202460529e+02,2.729292527993449085e+02,1.701253527218833312e+02
1.858283953041668894e+02,1.397063619904900520e+02,-4.612203331368538528e+01,-1.635988886743077160e+02,1.136327286672745771e+02,4.444331122078942542e+01,-8.639308384801140051e+00,2.542302771854596415e+02,2.416102019588277017e+02,2.928775071362292692e+02,2.678920042594886581e+02,1.555328012356203828e+02
1.662697242237647686e+02,1.251911589170357217e+02,-4.107856530673763018e+01,-1.441245222524953533e+02,1.037788206869087304e+02,3.971439497474784019e+01,1.281929339558530501e+00,2.448744801759405050e+02,2.370032286973119255e+02,2.929354972379165929e+02,2.677355769456078178e+02,1.214202000257782430e+02
1.711118006289429445e+02,1.204367779912220726e+02,-5.067502263772949078e+01,-1.441709347755855504e+02,1.085652303169106148e+02,3.498590728328979083e+01,-3.436393877617021531e+00,2.160004531335034414e+02,2.177576243085945862e+02,2.637149249551399635e+02,2.480599656852783426e+02,1.702675423542281692e+02
1.808346173923024480e+02,1.156832140333970642e+02,-6.515140335891408085e+01,-1.490981200307984977e+02,1.231119529019789809e+02,2.537784642631697096e+01,-1.303428316295880052e+01,1.871281716397426749e+02,1.936333719842738503e+02,2.540157801768580441e+02,2.381451648987741692e+02,1.215148212565218273e+02
1.612781671173780182e+02,1.109304616752485657e+02,-5.034770544213814247e+01,-1.345060715778016913e+02,1.034989836138033468e+02,3.041021063062895280e+01,-7.991743634890234205e+00,1.728976109400751398e+02,1.792704545798847846e+02,2.491980523719790881e+02,2.379911686149976049e+02,8.740202955037396748e+01
1.026824421463014971e+02,9.641851536911462972e+01,-6.263926777195555573e+00,-1.003947827567176034e+02,5.460631745406153925e+01,4.520299807444006035e+01,-7.828780399126060274e+00,1.586687459797084614e+02,1.697888546434666637e+02,2.541417306078057265e+02,2.378379704850300982e+02,1.508891598555539986e+02
1.172874345883807763e+02,1.063073693977678005e+02,-1.098006519062164799e+01,-1.102042467070634046e+02,6.427394927785744017e+01,4.535620688286360291e+01,-2.785398547974942574e+00,1.444415514329506891e+02,1.554285544403253425e+02,2.298068035599203540e+02,2.230455637895030634e+02,1.118962046071225984e+02
1.221331363548567879e+02,1.113170178808706510e+02,-1.081611847399485526e+01,-1.151344563885909764e+02,6.418187382476392600e+01,5.038983511769115609e+01,2.258396836079022307e+00,1.399760017258619484e+02,1.508295359725645994e+02,2.152332595230190577e+02,2.180139414459666511e+02,1.265831560501292614e+02
1.269795391727436424e+02,1.065674547738239681e+02,-2.041208439892835003e+01,-1.151854045883403330e+02,7.385008573322775760e+01,4.078388077002330192e+01,7.302600674417188742e+00,1.306320710541503445e+02,1.413517809952880668e+02,2.201810864288744369e+02,2.032230960210117985e+02,8.271000623953889885e+01
1.513466345777516153e+02,1.115786738637622761e+02,-3.976796071399803623e+01,-1.298770839158077592e+02,9.327857953595938056e+01,3.605834176003023828e+01,1.234720788490080423e+01,1.164097333977378810e+02,1.269952710308971859e+02,2.007302718638199224e+02,1.933130197457180088e+02,6.811674705917336325e+01
1.269144139010293770e+02,1.019506687683992538e+02,-2.496374513263877049e+01,-1.152894867957359111e+02,7.366734964771666228e+01,3.621321594241602781e+01,2.227221337353386943e+01,1.168289625348480598e+02,1.321599873829126466e+02,1.910408030824299317e+02,1.931637045315753767e+02,9.744337024825853177e+01
1.171228682630355991e+02,8.744343293962671737e+01,-2.967943532341751833e+01,-1.007026054661317858e+02,7.357639035784160342e+01,2.660850111330827872e+01,2.243761202517457676e+01,1.074897320551404221e+02,1.275659111469409766e+02,2.008726670211976568e+02,1.832551419835533579e+02,4.868986741894006798e+01
8.293198858499775383e+01,6.805695967519238820e+01,-1.487502890981398807e+01,-7.635643198911849083e+01,4.908569583563166105e+01,2.676419501667189138e+01,1.772339869567253601e+01,8.351201537189199087e+01,1.180930232168859249e+02,1.863058503088826114e+02,1.684673234107914368e+02,4.385623006856999240e+01
4.874176561843400179e+01,4.867124213988478232e+01,-7.052347855784368846e-02,-4.713095827604674071e+01,2.459526014806978722e+01,2.204029535072205093e+01,1.300956820970944250e+01,5.953578574035600468e+01,9.886130429258417962e+01,1.571003392749558145e+02,1.585602398401407811e+02,6.830244959769815694e+01
5.359218998418084112e+01,4.880627339099432049e+01,-4.785916593195111091e+00,-5.206617611973534565e+01,2.938507728516011497e+01,2.219679977338592991e+01,1.317611536434364083e+01,5.020101628562565566e+01,8.451073489551995976e+01,1.522961199670735652e+02,1.486538820335077276e+02,1.220285173142782043e+02
5.844325220428962098e+01,4.894204639854490324e+01,-9.501205805753286882e+00,-5.212207722053150150e+01,3.417514118146017665e+01,1.747370590633771670e+01,2.310303493255397811e+01,3.598768003192122933e+01,6.528129539166870643e+01,1.523731781747299010e+02,1.387482405051961791e+02,8.791442440840128825e+01
2.913494271680888659e+01,4.419855405506594082e+01,1.506361133824851706e+01,-3.753865319858397953e+01,4.805445726204091272e+00,2.739101133760681606e+01,2.327032166155414217e+01,2.665574992617123939e+01,5.581296601671560609e+01,1.280514994472021328e+02,1.288433055378225163e+02,5.868016192798087616e+01
6.326725188248452980e+01,6.385578917728222592e+01,5.885372947891802653e-01,-6.199589559803430205e+01,2.911598477009782471e+01,3.242871362038260941e+01,2.831797026682824381e+01,2.220519885636159074e+01,4.634572689937061796e+01,1.183710691086424021e+02,1.238190671972789403e+02,2.944572078961443751e+01
5.836016998670540801e+01,5.423374450209824715e+01,-4.126425484615625194e+00,-5.717379588597792406e+01,2.902675213068798854e+01,2.282681026801564528e+01,2.360597542664106641e+01,1.775599966560483267e+01,3.687955808040400996e+01,9.405187227887138590e+01,1.041555153472202733e+02,1.485109181654126331e+01
2.417368723574355016e+01,4.461241268163078644e+01,2.043872544587878437e+01,-3.283234544809665323e+01,-3.422584079741213259e-01,3.274529875044427740e+01,2.377433177987527557e+01,1.330812516192887074e+01,3.229443952787697469e+01,9.901389389749810732e+01,9.425263966545092842e+01,4.905626577279748091e+01
2.414779376250077547e+01,3.987178628584590001e+01,1.572399252333674013e+01,-3.289153559284672923e+01,4.448946909084824597e+00,2.802417649347301065e+01,2.882303392624496041e+01,1.374154812521135227e+01,3.747035114856775806e+01,9.909711874233288142e+01,9.411042966221270945e+01,2.470123337502955252e+01
9.482479646515194815e+00,1.561185781422712893e+01,6.129378167703565694e+00,-1.343135756705454043e+01,-5.196381787908777028e-01,8.663440879951433971e+00,1.923207642650870852e+01,-5.343758686363401011e+00,1.824727279511790812e+01,8.454153143829157102e+01,8.908887469466819198e+01,1.986598529099764932e+01
2.897773493158998548e+01,3.039261971124495787e+01,1.414884779646660817e+00,-2.813180257198669665e+01,1.403198006128429398e+01,1.370308925665712962e+01,2.428145380315721980e+01,-9.787822526521949840e+00,1.854518427317688634e+01,8.462711646344547489e+01,8.406796397520351150e+01,5.407051214045638687e+01
3.871354962916039710e+01,4.029406437659670814e+01,1.580514747428052758e+00,-3.795286177038727260e+01,1.882379535349831201e+01,1.874311894403007273e+01,2.933116054157609653e+01,-1.911067064684297634e+01,1.884406535092189472e+01,8.471385815697099986e+01,9.368768657640274000e+01,-1.908519550206277415e+01
4.529913712152634275e+00,2.091618416451174056e+01,1.638627045235089952e+01,-1.361452628400671472e+01,-5.664198593175648000e+00,1.890352723925128231e+01,1.974119108930645083e+01,-3.819233028127419516e+01,4.503895767150140728e+00,7.504174072567136022e+01,7.890803143364429673e+01,4.788529036123421179e-01
2.890681711407074772e+01,2.105897138210483632e+01,-7.847845731974079087e+00,-2.343678719255606779e+01,1.864799191420739177e+01,4.424311414567391409e+00,1.503153985625569788e+01,-5.239282862827491272e+01,-1.959534475920440855e+01,5.561074825097176699e+01,5.924898734959780455e+01,-9.237352113481414051e+00
2.888424973378721461e+01,1.632241829580986803e+01,-1.256183143798546098e+01,-2.349963553883981859e+01,1.856036055412760888e+01,-2.945312791565157795e-01,1.520220121966167781e+01,-6.659219282868119194e+01,-2.417367651099914383e+01,4.106086470351881701e+01,5.423054300775194037e+01,-1.407382001744756650e+01
-7.361779855633994885e+01,3.110651713828766063e+01,1.047243156946195484e+02,2.035693766421076134e+01,-8.888709900403391373e+01,6.818699639064010398e+01,6.417316952525310114e+01,-1.247044994880297963e+01,1.516888024471231233e+01,8.507207395967938623e+01,9.313268698689198288e+01,6.404943973392637702e+01
-2.483933788143487220e+01,3.613126010677636657e+01,6.097059798820323806e+01,-4.107058579674692567e+00,-4.505439306943533495e+01,4.882889162179968423e+01,5.458443907177213816e+01,-1.690762698538873110e+01,5.712305255734435150e+00,6.564435980330169684e+01,7.835540775941431946e+01,5.433241766438235487e+01
4.419621671582703470e+00,1.675663935621182787e+01,1.233701768462113080e+01,-9.051615264742970624e+00,-6.101527890182609326e+00,1.483115155152528430e+01,4.499600408741496693e+01,-3.110375088723009185e+01,-1.350342172857648393e+01,4.133770591749203049e+01,5.869869368013235800e+01,4.461510424109517459e+01
1.903907005260498408e+01,1.690264699852649954e+01,-2.136423054086455053e+00,-1.887672338311755738e+01,8.451490346331141268e+00,5.233773255652824474e+00,4.028785872053313710e+01,-3.553884856630975264e+01,-8.318320959686587912e+00,3.655209589017513849e+01,5.856253298791676087e+01,-9.022510140605966455e+00
-1.026100278062826021e+01,1.704927511050418332e+01,2.731027789112449256e+01,-4.302373914240092745e+00,-2.091534451876312772e+01,2.003675377169104621e+01,4.045999704602123614e+01,-4.485294689041234051e+01,-8.012412680851525693e+00,5.616751323153729203e+01,5.842691381921862614e+01,-1.386043513401126859e+01
-3.956060687295563127e+01,2.556515742108935285e+00,4.211712261505665822e+01,2.003144217713263231e+01,-4.052203863041115994e+01,2.020009011377962338e+01,4.063241307265474234e+01,-4.928607267050750806e+01,-1.258571712141213084e+01,4.650394138148496381e+01,5.341182421778897549e+01,3.986131959170362649e+01
-2.493975225322363087e+01,2.704360923862367372e+00,2.764411317707811833e+01,1.020473392819614844e+01,-2.596859810571449145e+01,1.548377927148441913e+01,2.616510074710011935e+01,-6.835825264861006190e+01,-3.179825449346850519e+01,2.220136370854542918e+01,4.839725213916836566e+01,-3.817725563717915804e+01
-1.031844891429084043e+01,-2.027197324353963381e+00,8.291251589929050425e+00,5.257510363465165426e+00,-1.141502901953442972e+01,1.007818208116852077e+00,3.609805395887490675e+01,-7.766951348278956857e+01,-3.149004498237502503e+01,1.741976351827290159e+01,4.338318545612649046e+01,-2.349617049423127924e+01
-2.009670681204747211e+01,-1.878166985923158450e+00,1.821853982611650835e+01,1.006978049107472373e+01,-2.126133740720931087e+01,6.052203867133826520e+00,3.627126654483251400e+01,-7.721988172980451282e+01,-3.606110873343433809e+01,2.727912407020986052e+01,3.836961196600235979e+01,5.824565363694986786e+00
-3.963453587109043497e+01,-1.636855604201998915e+01,2.326597982906261208e+01,2.952155330336026395e+01,-3.110752927202565843e+01,1.336933180913963071e+00,4.132473228841702451e+01,-7.188938383249134745e+01,-4.063146584191963484e+01,1.761942858819170965e+01,3.335651939851899783e+01,-1.365505769646677692e+01
-4.941194597756447138e+01,-1.133837246471273374e+01,3.807357351284392166e+01,2.945283776935738018e+01,-4.583361058128071619e+01,1.126200307477969709e+01,4.149844491511510114e+01,-6.655804611713782037e+01,-3.544113634737641405e+01,1.772066026256865712e+01,3.810389542264679363e+01,-1.849504929119111551e+01
1.401105303227426191e+01,3.761237578518050384e+01,2.360132275289841886e+01,-2.429635717269758999e+01,-6.879587256165493159e+00,3.094741046341293966e+01,5.143239808743203412e+01,-5.146589479941411582e+01,-2.537014023220356762e+01,2.758280225147552756e+01,4.773172764918768252e+01,-3.797541901804682141e+01
-2.016554863504498485e+01,-6.156319254026342946e+00,1.400922938101080462e+01,1.467397739377130961e+01,-1.672546517258127352e+01,1.833152241566004648e+00,3.208658540081788857e+01,-5.589295599505885548e+01,-4.457849742451386987e+01,1.304583768114933662e+01,3.296000362812974060e+01,-3.305617644102291308e+01
-3.970176074634348140e+01,-6.004465557006390952e+00,3.369729518932922474e+01,2.436385037709774082e+01,-3.633125017146364399e+01,1.175922527952543284e+01,3.714100038434745699e+01,-5.055925573009099594e+01,-2.962622779956944896e+01,2.290974964577014816e+01,3.770871084695173181e+01,-4.765733107585440109e+01
-6.775930417670537054e-01,3.806792889024590920e+01,3.874552193200509720e+01,-1.962672932394448111e+01,-2.177694806055012577e+01,3.632562642523055985e+01,5.195563650472682582e+01,-4.034481994769546986e+01,-9.793351180742760675e+00,3.765452120682513737e+01,5.709783673130377224e+01,-3.785889238010055635e+01
-3.485305522810580214e+01,-8.191439107725813074e-01,3.403391131732532671e+01,1.934224717759101964e+01,-3.650256460711594286e+01,1.697235250021184072e+01,3.261048716602143571e+01,-5.940967451320861414e+01,-2.411988734808451795e+01,1.336013538866832562e+01,4.232736864093367757e+01,-1.342086975082877842e+01
-5.438815697544184502e+01,-3.482569197416352580e+01,1.956246500127040377e+01,4.367078875740867971e+01,-3.658810553213617567e+01,-7.260599705897625711e+00,3.505545711285705579e+00,-8.823384521149895932e+01,-4.820585604594168672e+01,3.706575177881973104e+00,2.267729386561271809e+01,-8.503272535132524013e+00
-7.229079080932692136e-01,-2.491172331180152355e+01,-2.418881540371618044e+01,1.431890426677145456e+01,1.212642348984774188e+01,-2.661323342326243235e+01,-1.199194560596737347e+00,-1.024173577277110496e+02,-5.277127697393889605e+01,-1.570617646357783315e+01,1.278759963437082092e+01,-1.822611004777881050e+01
3.342268239208178215e+01,2.404275408876869591e+01,-9.379928303321008798e+00,-2.967339747689507590e+01,2.180101681517434287e+01,7.714448121662897506e+00,1.361625962858235184e+01,-8.732023761992965660e+01,-4.757616976797775976e+01,-5.838136578106499996e+00,3.217827313281241430e+01,-3.549391582200328799e+00
-1.539139564328898757e+01,3.883773225506045890e+01,5.422912789834151681e+01,-1.022610767087618910e+01,-3.684433119399885470e+01,4.692244171157744859e+01,4.307190154368845469e+01,-5.758251030658112768e+01,-2.286055399122011522e+01,1.379067779926599258e+01,5.644930150807219604e+01,1.600687358326710807e+01
-3.492515158713328560e+01,1.947320319660436638e+01,5.439835478372972233e+01,9.220782498138945016e+00,-4.668962617051300157e+01,3.733074411382900593e+01,3.836772442123476878e+01,-6.200420107807912018e+01,-2.254444914266021271e+01,1.390024963595315910e+01,5.144067185428047395e+01,-1.323732382465542656e+01
-3.493859499932395352e+01,-9.650841113357081724e+00,2.528775388595891727e+01,2.378728185369516268e+01,-3.213487371402840154e+01,8.219352052581328394e+00,1.414372145104443845e+01,-7.618533511560170268e+01,-5.150787467045140033e+01,-1.526943810881564900e+01,2.691237119612640072e+01,6.318006919098529295e+00
-3.983173539908644045e+01,-1.437440872527696456e+01,2.545732667380147518e+01,2.859339920876929142e+01,-3.222007936902504355e+01,3.508262207600896687e+00,2.895988577407515763e+01,-6.108593749751000246e+01,-3.655084997239873701e+01,-1.027840248178911509e+01,3.654438648905855302e+01,3.563285653550818921e+01
-3.496458225119229724e+01,-1.421750768835272538e+01,2.074707456283148943e+01,2.363914334639489567e+01,-2.742524862419421083e+01,3.677471233008855478e+00,1.937621049070147095e+01,-6.550603319768660526e+01,-4.111339438694514570e+01,-1.504666052208044391e+01,3.153670462994288926e+01,1.614721573000176846e+01
-4.961714496166042920e+01,-9.180146035083097900e+00,4.043699892656914585e+01,2.844452301074544209e+01,-4.703038691705937424e+01,1.360697577127851154e+01,2.443268866519381888e+01,-6.504564708672691609e+01,-4.079552718891201835e+01,4.585770747216187715e+00,3.628931246296654933e+01,1.541075179567343412e+00
-5.450943287250814251e+01,-9.022331778660429791e+00,4.548710109383942068e+01,3.324954690439791705e+01,-5.199549963004054121e+01,1.865677245344699386e+01,2.460931332591901111e+01,-6.946480393360641870e+01,-4.535726758951837212e+01,-1.811256844760293916e-01,2.640219678031223083e+01,-1.794557446159625869e+01
-3.988145525412572567e+01,-2.350407291416662758e+01,1.637738233995069947e+01,3.317422368512151820e+01,-2.768059208128969573e+01,-5.573142105902491039e+00,1.502607746554065216e+01,-8.852352840212031992e+01,-5.967863473307349409e+01,-2.446736682109607841e+01,2.139534432473355707e+01,-2.767274254026564506e+01
-5.941322130097894672e+01,-3.798537741359018582e+01,2.142784388738024859e+01,4.773856196029022669e+01,-4.240566952265662337e+01,-1.028277130557785313e+01,2.008297404312058987e+01,-8.806184504066820296e+01,-5.935964768844110040e+01,-2.435296965489260401e+01,2.126874179593296077e+01,-5.692043837857514177e+01
-5.454474012968897512e+01,-5.246625321086116855e+01,2.078486918819184126e+00,5.254257027844361971e+01,-2.785073714573610459e+01,-2.475211854330691352e+01,5.619995988597104031e+00,-1.022397782682367335e+02,-7.856032543717637395e+01,-3.887795115091395814e+01,6.502375858365169847e+00,-3.736867124982458677e+01
-4.479602077568647900e+01,-5.718670818165803382e+01,-1.239068740598028207e+01,5.246625711847148210e+01,-1.817580008886559995e+01,-3.434118719746376058e+01,-1.372286378893426928e+01,-1.115373523603829256e+02,-8.800068685928698642e+01,-5.828232822959826365e+01,-8.263766848582875468e+00,-3.733745036331795575e+01
-2.528707219557038854e+01,-3.262675012844391631e+01,-7.339677932882345601e+00,2.798963088355247208e+01,-8.500863446975404969e+00,-1.952998061212321801e+01,-3.785612387235843812e+00,-1.013145914366441502e+02,-8.280075071756846228e+01,-4.840611774936414236e+01,1.370300303390493468e+00,-5.194678486203609680e+01
2.350209671484579843e+01,1.145361321548170253e+01,-1.204848349937299901e+01,-1.600730008826894135e+01,1.581406771238163600e+01,1.614979069511583987e-01,6.151743100680334919e+00,-8.133151945555457019e+01,-6.296053564859477092e+01,-4.340933649395613259e+01,1.100456394120556070e+01,-4.215668382268535197e+01
3.971477087751303259e+00,2.137437415673667118e+01,1.740289706897638666e+01,-1.120452749353987798e+01,-8.671011668901023484e+00,1.985324507920531900e+01,2.096919558437475928e+01,-6.134816022534883473e+01,-5.288006016892190075e+01,-1.889200117357658826e+01,2.551901068679453033e+01,-3.236715625384399431e+01
-3.019893994279003380e+01,1.665552500357715360e+01,4.685446494635809955e+01,8.237956968094877652e+00,-3.803610664600621760e+01,2.978525762430870572e+01,3.578673796096767745e+01,-4.624453742797675204e+01,-3.303934269365011289e+01,-9.014128440279165488e+00,3.027362714303670543e+01,-3.058211102664095904e+00
-4.972916323511880421e+01,2.169705804187898224e+01,7.142622127698867018e+01,1.304016160256965406e+01,-6.252122225347196149e+01,4.459753223621689244e+01,4.084436309537282739e+01,-4.578067464549482679e+01,-2.783840155879047984e+01,8.642650899815151888e-01,3.502839987826720858e+01,-2.254985727250596739e+01
-3.997920161049134435e+01,1.209896552870677056e+01,5.207816713918895601e+01,1.296209471058540430e+01,-4.796636347273418721e+01,3.013006556341372644e+01,3.126206380385835715e+01,-5.019659537837736707e+01,-3.727725503982817656e+01,-1.365683718089755416e+01,2.514331541601433884e+01,6.757896359903593719e+00
-3.998906383024633726e+01,1.226123969396365254e+01,5.225030352420080959e+01,1.288376457679762410e+01,-4.805153520965197345e+01,3.030285420008625508e+01,3.143983284759014651e+01,-5.949232305099306473e+01,-4.183592135935346334e+01,-8.657451840007354349e+00,2.501836023281808252e+01,3.606504092921557003e+01
-4.975875858960952769e+01,2.663872745367889650e+00,5.242263133496820871e+01,2.256517946518434314e+01,-5.301674229009672956e+01,2.559589468823264014e+01,1.697766293615796585e+01,-7.366788100567310948e+01,-6.103441868185767305e+01,-1.829759546075995047e+01,1.513352076270321334e+01,-2.246843243664827838e+01
-5.952829451482610068e+01,-2.053143124194242830e+00,5.747515139062261369e+01,3.224634761393926397e+01,-5.798198946077005189e+01,2.576918352357257902e+01,1.715554673633012328e+01,-7.808329248964929548e+01,-6.071276510044845054e+01,-3.281728459594411618e+01,1.500878340450461224e+01,1.957467377282483767e+00
-8.393768015221215251e+01,-2.140981572646390418e+01,6.252786442573898995e+01,5.168727722418553583e+01,-7.270728138431738330e+01,2.106271716003120886e+01,1.245347688175903755e+01,-7.273858064151696112e+01,-6.527097862261467753e+01,-4.245653576602818191e+01,5.124134529667543347e+00,-4.193726851227802399e+01
-1.132269239462733879e+02,-6.028615285999997297e+01,5.294077108626417782e+01,8.576797643965795714e+01,-8.255262262778633442e+01,-3.163507984351184632e+00,-2.008554018264128160e+00,-8.203376848340272431e+01,-7.470907715979441832e+01,-5.697536544223423505e+01,-9.640439508525972201e+00,-3.215264896504571368e+01
-1.132360342092670464e+02,-5.036216228191181443e+01,6.287387192734601626e+01,8.080845331782914798e+01,-8.751801764728210742e+01,6.770504484194336925e+00,-1.830553369104222838e+00,-7.668887891788551769e+01,-7.438707851931982873e+01,-5.685379002866270071e+01,-4.884952362878820509e+00,-4.188868279819145357e+01
-4.980501909979625452e+01,-2.579785168339549273e+01,2.400716741639163132e+01,3.680871580769100859e+01,-3.880347077880284701e+01,-2.815249051795220225e+00,-1.141252857965075407e+01,-8.110393472586906682e+01,-7.406500039731315610e+01,-6.649182584774486315e+01,-1.964941768020058532e+01,-7.705378776872045421e+00
8.746113360566461381e+00,3.646771309059950283e+00,-5.099342051515595386e+00,-7.191228241089298479e+00,5.031013746682116761e+00,-2.640772213204904517e+00,-1.123448705261264280e+01,-6.599895856635568236e+01,-6.398286037586096597e+01,-6.148948913044984010e+01,-1.489384909208155250e+01,-2.232274561997206064e+01
8.737355230249796989e+00,2.821169910536996994e+01,1.947434387511114195e+01,-1.703137103573798328e+01,-4.814568238466559791e+00,2.193393137728811482e+01,8.463563820433286367e+00,-5.577397298192443031e+01,-4.414067592826978625e+01,-3.696679601362232859e+01,-3.782602099450542710e-01,6.979207985599046538e+00
-1.567130140887081069e+01,3.325692411404432391e+01,4.892822552290611782e+01,-7.351704794139735100e+00,-3.418022087597863390e+01,4.162885808638605312e+01,2.328161665353586329e+01,-4.554900041133993227e+01,-3.405846443382894506e+01,-7.563762551582001947e+00,1.413733537039271937e+01,-2.227952662748780099e+01
-3.519986446904788124e+01,1.878243871340820448e+01,5.398230318244713288e+01,7.207778277153806812e+00,-4.402594828534370208e+01,3.692400424945766702e+01,1.857966405040502877e+01,-4.996406320453799310e+01,-3.373624319732736865e+01,-1.720040474198432889e+01,1.889292405370516548e+01,-1.249895811129372447e+01
-6.936834183715852475e+01,-1.033176475531023186e+01,5.903657708183938269e+01,4.128708597639419509e+01,-6.363175454133576636e+01,2.245936615267716263e+01,1.875769858987347405e+01,-5.925918363143134115e+01,-4.317402946286584609e+01,-2.683673854835444672e+01,9.008492229862156364e+00,-1.735909509884220370e+01
-8.889674133856354388e+01,-3.944569396969878028e+01,4.945104736885586760e+01,6.560622607966597286e+01,-6.859764364773454304e+01,3.114940033226634597e+00,-5.842871772329587543e-01,-7.343438387930675049e+01,-6.237184041435909876e+01,-5.111277990218070499e+01,-5.755973730729650129e+00,-3.685994619749600787e+01
-9.378507069906518723e+01,-7.831935658886587248e+01,1.546571411019042586e+01,8.504520630298344486e+01,-5.404361951865266178e+01,-3.086927790148742901e+01,-1.992630071839025163e+01,-9.736968603881328477e+01,-8.156969316177725204e+01,-7.050854468504375916e+01,-2.540048746695032378e+01,-2.708151998043150499e+01
-5.475333752017509426e+01,-3.423276021281831305e+01,2.052057730734798824e+01,4.592403426961671187e+01,-3.948968597412351755e+01,-6.293291445585985855e+00,-2.283495020650647689e-01,-7.250511208472156000e+01,-6.660760472025656043e+01,-6.062404870314001926e+01,-2.552506260728270604e+01,-2.663824980489049921e+00
-1.084154928480594293e+01,2.937408763106517995e+01,4.021563691586236189e+01,-7.837282493585135512e+00,-2.493584675185136490e+01,3.292289562069552034e+01,2.922955901056420913e+01,-3.300068386904213469e+01,-3.700559199919283060e+01,-2.633930767273922413e+01,3.630287245593194712e+00,2.175313030029131056e+01
1.355028660423738884e+01,3.442117945497415832e+01,2.087089285072804046e+01,-2.255873652089048420e+01,-5.502105528468430151e+00,2.821927951694743086e+01,2.940741735202006879e+01,-3.253642314028866167e+01,-3.180367181367667229e+01,-2.133433722988547743e+01,8.385548512142278810e+00,-1.239066263169992155e+01
-1.097837224216569041e+00,1.994850775954256505e+01,2.104634498375045126e+01,-8.000320358596205494e+00,-1.046846594221807436e+01,1.863585643616625376e+01,1.982521802638190067e+01,-4.671235157272357696e+01,-3.636186090733744436e+01,-3.584915295293392035e+01,-6.379292379518432199e+00,7.144787725021746638e+00
-1.105928139165570201e+00,1.523606500791885310e+01,1.634199314707578310e+01,-8.082026537329653593e+00,-1.055493160945805187e+01,1.393262253402182616e+01,5.362953500927623907e+00,-5.112849077849024582e+01,-4.580017596567982707e+01,-4.060377037367868525e+01,-1.138424900150641861e+01,7.059947286130525868e+01
-3.039399350979778092e+01,7.638436293080914652e-01,3.115783713909725705e+01,1.623615242807849768e+01,-3.016150612880414883e+01,1.410957393428643591e+01,1.042061621393773407e+01,-4.578486230215659702e+01,-4.059863361515922975e+01,-3.071820497326979194e+01,-1.749334921225567996e+00,3.157338423594857701e+01
-4.992204068884146295e+01,5.811836032020877951e+00,5.573387672085376465e+01,2.103422402446068418e+01,-5.464819307101279833e+01,2.892670673426368921e+01,2.523819858345025580e+01,-3.556148761573371075e+01,-2.563725041988023179e+01,-1.595247217955630958e+01,7.885436302156222155e+00,-7.453486746666271756e+00
-2.553007698878433018e+01,1.086003461271921822e+01,3.639011160149496504e+01,6.312195724277628983e+00,-3.033499595983166586e+01,2.422401700213591624e+01,1.565569300603302949e+01,-4.973838812129980624e+01,-3.507604288542520976e+01,-2.558658737441261621e+01,2.880051112197605789e+00,-2.208114872376003035e+01
-3.529810966760005186e+01,1.268431758531434639e+00,3.656654142612291025e+01,1.599007497814030643e+01,-3.530191825902968361e+01,1.952150077098377068e+01,1.095309185175330313e+01,-5.903558515219776837e+01,-3.963502746458431147e+01,-3.522056590106467411e+01,-1.188550405032536617e+01,-2.694961033614769974e+01
1.837385406603521787e+01,-1.320298015130850189e+01,-3.157683421735231377e+01,-3.612130782685504471e+00,2.317103662108307205e+01,-2.422084595816265917e+01,-8.389612532771181463e+00,-8.297309996329907733e+01,-6.859422055357779868e+01,-5.461442305953265475e+01,-3.153124274151942075e+01,-4.157888019735915464e+01
-1.579419296673435724e+01,-1.303420873669151092e+01,2.759984230034224773e+00,1.582558585907779047e+01,-1.107613469997719946e+01,-4.523027198061249976e+00,1.547572187235161323e+00,-6.299095371366118457e+01,-5.851363847686927500e+01,-3.984817409256640985e+01,-2.677717849754078827e+01,-2.204896687749481998e+01
-1.280422579206362741e+02,-1.286526160501210114e+01,1.151769963156155541e+02,6.942323230304482706e+01,-1.234034355831904293e+02,4.933495303967686851e+01,4.076463834108467665e+01,-1.860916745964247809e+01,-2.403329747483105905e+01,-1.044183417823629156e+01,1.213667517748500302e+01,3.652012109533158224e+01
-4.021034789108028917e+01,-1.757614634430100864e+01,2.263420154677068297e+01,3.030081590942888425e+01,-3.077086933757198040e+01,7.130907343275580956e-01,1.901578243318404304e+00,-4.742776217083421386e+01,-5.299321370852184998e+01,-4.935541843773572168e+01,-1.726969519452040913e+01,-3.667162478593843389e+01
-6.058469878018193810e+00,-2.228687051968552169e+01,-1.622840064167587926e+01,1.557834397872946397e+01,3.301560813713976472e+00,-1.862861815800926735e+01,-1.256161581465113386e+01,-5.672675874931937301e+01,-6.243340326874270829e+01,-4.922894194128238610e+01,-2.715630307584953584e+01,-7.384213022058517595e+00
-4.998663079924143915e+01,-1.723744166937481737e+01,3.274918912985809527e+01,3.501582375566387384e+01,-4.070614828267149932e+01,5.949822306246076664e+00,2.255048446117726257e+00,-4.162617802991645988e+01,-4.259388217178218383e+01,-2.958241970023418332e+01,-7.763161909484580292e+00,2.190234789631261236e+01
-1.085548375108090795e+02,-2.194786730159631105e+01,8.660697020920426326e+01,6.421326243737684081e+01,-9.935399973244771843e+01,3.052840807118535338e+01,1.707156330465501171e+01,-2.652604077519345083e+01,-2.763466635516125791e+01,-1.481586666395872953e+01,1.162971488490285310e+01,2.388049484796681554e+00
-1.280830967785131520e+02,-2.665815489295821550e+01,1.014249418855464313e+02,7.877066715883273673e+01,-1.140819965660065094e+02,3.558713506925019487e+01,1.724792103505012264e+01,-2.606636768379171087e+01,-2.731577168858915172e+01,-9.809297733815967035e+00,1.638231389831469187e+01,-3.176711674517233064e+01
-8.417141522652686092e+01,-1.184831188681236114e+01,7.232310333970609406e+01,4.940804496679949409e+01,-8.001014168788714187e+01,3.088599919766102886e+01,7.664113894292690077e+00,-4.024717940302697627e+01,-3.187721398919715909e+01,-1.456272778094397324e+01,1.614621714085373583e+00,-2.688315927637448510e+01
-4.025979932027857444e+01,-1.655834569446939497e+01,2.370145362580080217e+01,2.980540281142075543e+01,-3.129843785905032405e+01,1.784996308155879063e+00,-6.799865879903762789e+00,-5.442849652960579476e+01,-5.595900902536317290e+01,-4.371617165216052570e+01,-1.315337509714856878e+01,-5.128008656061705040e+01
-3.538825539638668261e+01,-2.614826369879112633e+01,9.239991697587266017e+00,2.972274756250683936e+01,-2.162688772526289682e+01,-7.795877782355027819e+00,-1.638402605844307658e+01,-6.373033959655577974e+01,-7.028117250484865508e+01,-6.310964415732550492e+01,-2.304168996584080276e+01,-7.567790699449734859e+01
-4.027678970495392008e+01,-3.085807325255389344e+01,9.418716452391821647e+00,3.452008603057967662e+01,-2.659549386069351229e+01,-1.249662726925089373e+01,-1.132837440543374896e+01,-6.327272905587662422e+01,-6.508372005390344839e+01,-6.786316004291785475e+01,-2.805033630527182709e+01,1.216337109723017917e+01
-1.588540843427291804e+01,-3.556778167015711745e+01,-1.968237323589234578e+01,2.467742497650878164e+01,2.595741203228097760e+00,-2.695725633956348943e+01,-3.067291866610371898e+01,-7.257568526546856447e+01,-7.452666720017251123e+01,-7.261673396656321700e+01,-3.305932749613748456e+01,-1.711626054643038586e+01
-4.029411772127087943e+01,-2.563739621980749206e+01,1.465672150145535113e+01,3.435477111354155255e+01,-2.677318503631156688e+01,-7.257769158946430821e+00,-1.097766655899278732e+01,-5.259922848271537532e+01,-6.445002936510955749e+01,-4.321038048487154981e+01,-1.854867687779184848e+01,-1.223681015124047633e+01
-4.030292365482377193e+01,3.813075875265091952e+00,4.411599953008089869e+01,1.963213110885818935e+01,-4.150227505669911210e+01,2.220183012899601138e+01,8.717374224724526499e+00,-3.262337886804851905e+01,-3.973382186542205829e+01,-3.332411405933864046e+01,8.416022500524036332e-01,-2.478285925315802274e+00
-4.519183227003827596e+01,-5.776372577243719775e+00,3.941545969278665495e+01,2.442951158655266397e+01,-4.159153129787145531e+01,1.750153738626685396e+01,-8.678039899674203639e-01,-4.192815649991979399e+01,-4.429805992497323075e+01,-3.319794907508203607e+01,-4.168503385784589454e+00,-2.480696062928466006e+00
-5.984084953778015858e+01,-2.024574875418991837e+01,3.959510078358241003e+01,3.898691913013840349e+01,-5.144095614411324391e+01,7.921348459755868987e+00,-5.573208875032968024e+00,-4.147358138977237729e+01,-4.886275869001124761e+01,-3.795189985720024595e+01,-4.299007046483978911e+00,2.679595124788951921e+01
-1.135299813484980120e+02,-3.959505981629628479e+01,7.393492153219401075e+01,7.794436027507110509e+01,-9.545055190728004391e+01,1.786125917335370872e+01,-5.188481020345747652e-01,-4.589967348607805775e+01,-4.854793323536567584e+01,-3.782598067572288869e+01,-4.429921987205034384e+00,-1.224835218653403501e+01
-9.401923348273686543e+01,-3.942431289130519900e+01,5.459492059142393572e+01,6.810184148558482775e+01,-7.602032080431698091e+01,8.281265329573113121e+00,-5.224729339077150314e+00,-5.520645267029186698e+01,-5.799359856161126459e+01,-4.258020574343048281e+01,-1.432126145593109356e+01,-4.153361456550629782e+01
-2.570861158783089451e+01,-1.973351505808241768e+01,5.975096529740776319e+00,2.409936913390469471e+01,-1.755026494095668710e+01,-6.178637286928587713e+00,-9.930860248703275772e+00,-6.451393874900317371e+01,-6.255976958890364870e+01,-4.245458921224764026e+01,-1.933303868851187701e+01,-5.129984407019452419e+01
-5.011812119119935005e+01,4.837326652166197505e+00,5.495544784335785948e+01,2.401694950655508620e+01,-5.180038632441411295e+01,2.816154709559896219e+01,9.762751513261740399e+00,-3.966215144561003569e+01,-4.272646115128947031e+01,-3.256914517106237383e+01,4.934733096770308691e+00,7.252951163953124336e+00
-4.524776773360730431e+01,2.452820523471245195e+01,6.977597296831208951e+01,9.294588831584007949e+00,-5.677068688701465504e+01,4.786181423191557371e+01,1.969609829316053151e+01,-2.945111040149980397e+01,-3.265368799909694530e+01,-1.292388764972464799e+01,1.456204069560297398e+01,-3.667523695040581799e+01
-3.549755658626378363e+01,1.005911368299318909e+01,4.555667026924937346e+01,1.409229330198416363e+01,-4.222116849033184849e+01,2.852215984049518838e+01,5.229172427824369862e+00,-4.364083518863751010e+01,-4.698146481035755073e+01,-2.743883063065069905e+01,4.668870903588697274e+00,-5.620441646105346933e+01
-6.227493057461984449e+00,-1.416995502639228732e+01,-7.942461968937877259e+00,9.130069087230140212e+00,1.608167075428710735e+00,-1.033742040863921829e+01,-9.238033761401290178e+00,-6.271134531692365499e+01,-6.130980619699774081e+01,-4.195398805709940859e+01,-1.010478949305534968e+01,-7.085459536336404085e+01
-4.527758240539861845e+01,-2.375900792491670188e+01,2.151857448047437060e+01,3.344792233578338880e+01,-3.264268192554261105e+01,-3.969308794604238244e-01,-9.065527960370090454e+00,-5.738266022538887512e+01,-6.099872669676916814e+01,-4.182937382766280621e+01,-1.999895371111009013e+01,-6.110578157271845612e+01
-6.968782984196138841e+01,-2.846805203004910823e+01,4.121977781190478396e+01,4.800585916666392450e+01,-5.713371718972987168e+01,4.663624054025397925e+00,-4.013317849569226325e+00,-5.693479926863355445e+01,-5.580824076089945152e+01,-3.682500178457650009e+01,-1.525363495540995729e+01,-4.159798290975226820e+01
-1.087382405089452391e+02,-6.245709432365468672e+01,4.628114618528307744e+01,8.696388564723623915e+01,-7.674494036131508778e+01,-9.795759981569347019e+00,-8.721411098684001217e+00,-6.624778171039663732e+01,-6.525836274839748796e+01,-4.158088570820969210e+01,-2.514884640722507925e+01,-7.577120710271495341e+01
-8.434881943858104592e+01,-3.788614173229599658e+01,4.646267770627764548e+01,6.248200776291400871e+01,-6.707635300208860940e+01,5.024912642130988871e+00,1.210184632658432236e+00,-5.604162672140158463e+01,-5.518910692511110483e+01,-3.169703931773427996e+01,-5.764601219773147989e+00,-7.090546178840189384e+01
-6.279571534505141273e+00,1.596479888058187768e+01,2.224437041507965063e+01,-5.919768597448328507e+00,-1.348795657609516496e+01,1.984563755355779335e+01,1.381461691769018785e+00,-5.559635337862687265e+01,-5.000048746468544891e+01,-1.693347627559650448e+01,3.859087478188484965e+00,-3.676075450595359939e+01
-4.045050159551068703e+01,1.495720694419581775e+00,4.194622228992295732e+01,1.839856238043855541e+01,-4.285975246327708987e+01,2.002641037188462647e+01,1.552412428351040319e+00,-6.491198066695204716e+01,-5.457251845284785929e+01,-3.145021019626655345e+01,-6.037793428358966707e+00,-3.677709270158747756e+01
-4.534161435308483590e+01,-3.213383100096905309e+00,4.212823125298069016e+01,2.319700647207869793e+01,-4.295174198119812559e+01,2.020722669391083315e+01,1.723029190905648989e+00,-6.446852747890113733e+01,-5.914521389121637185e+01,-3.132725465261091813e+01,-6.175257049039771573e+00,-4.655448374616221230e+01
-5.511291448137409077e+01,-1.768251931271128541e+01,3.743039516865566441e+01,3.775556942572675467e+01,-4.792392638917861802e+01,1.062808208760004014e+01,-2.986695674009887114e+00,-6.890601261010596090e+01,-6.859858769492760189e+01,-3.608462317370751293e+01,-1.119331648739500196e+01,-2.705293494703648349e+01
-4.048440658623382404e+01,-1.263169474530680247e+01,2.785271184091994456e+01,2.791425695205715130e+01,-3.337630688149717173e+01,5.928972094650529101e+00,-1.257676981919600934e+01,-7.334445475381781421e+01,-7.317265368455900898e+01,-4.572232923790701875e+01,-2.109198483496389542e+01,-4.659245355136926747e+01
-2.585609520140752693e+01,-2.710091618076379660e+01,-1.244820979363264968e+00,2.783307471525906607e+01,-1.394888458914821427e+01,-1.341010776027934881e+01,-2.216720088947031542e+01,-7.778387249541722781e+01,-7.774742557614894167e+01,-5.536038626399204077e+01,-3.587127516203683086e+01,-1.733304674894339570e+01
-3.562798479754098935e+01,-1.717019037514486257e+01,1.845779442238925938e+01,2.775202833268786407e+01,-2.868166059253301370e+01,1.410838042981637841e+00,-7.357996511949892238e+00,-6.758428430739796511e+01,-6.280291697406765650e+01,-4.059880760138509004e+01,-2.137120050555504491e+01,7.045278318833060993e+00
-1.480079794998832909e+00,2.520475944415927927e+00,4.000555739407996469e+00,-1.608876619779469053e+00,-4.374635934625446865e+00,1.591805028392197841e+00,-2.309164292512633665e+00,-6.226570854910283970e+01,-5.761914137196831120e+01,-3.071760652701111383e+01,-2.151177386176313178e+01,-3.201748545815409130e+01
1.802761541951642243e+01,2.221107606946420532e+01,4.183460649941144638e+00,-2.120963459335706602e+01,5.292188368239270524e+00,1.153278872199039462e+01,2.739288177759299003e+00,-6.670816347216245390e+01,-5.731611216134271558e+01,-2.571679625356804877e+01,-1.677300818836778973e+01,-1.252134516914956208e+01
3.265509646636282071e+01,2.238160328856810111e+01,-1.027349317780124949e+01,-2.617024004102990631e+01,1.983881131082248572e+01,6.833784644481173842e+00,-1.972646686715464170e+00,-7.603166722450646375e+01,-7.165384263864987702e+01,-3.535638994112454725e+01,-1.691491641049837114e+01,-1.254630787964065242e+01
8.242358945882521937e+00,7.912050868513127000e+00,-3.303080773758111377e-01,-6.730687394610541219e+00,5.105231881063566846e+00,2.134788306200668728e+00,-1.156497646960774972e+01,-8.535623784629160582e+01,-7.623234600293613994e+01,-4.499640070063571784e+01,-2.681751142381438058e+01,-7.692380630369573424e+00
-3.569060156728304634e+01,-1.631758794738964014e+01,1.937301361988712500e+01,2.734902893776335731e+01,-2.914855094547891667e+01,2.315795207784823617e+00,-1.627770874818592262e+01,-8.980189325917348242e+01,-8.081163534584820241e+01,-3.999684158795108146e+01,-2.696080609238273951e+01,-4.675957043919579803e+01
-7.474378949660234639e+01,-4.054731992103008054e+01,3.419646957556611255e+01,5.654891454798622874e+01,-5.364253818789295281e+01,-2.383199155834439864e+00,-1.123085108502089469e+01,-8.936865125510101393e+01,-8.051172364164519024e+01,-3.499772559734654465e+01,-2.710481324322659447e+01,-6.142788428917152999e+01
-9.427720921276960553e+01,-6.217151793619571265e+00,8.806005741914401597e+01,5.158897499008072174e+01,-9.277673082221316747e+01,4.171780070428866338e+01,1.821558897413016354e+01,-5.965652949223984081e+01,-5.093262374433963657e+01,-2.023906566313667810e+01,-7.729545664200593080e+00,-2.729732910520642264e+01
-6.989086498614814502e+01,8.592909724501609503e+00,7.848377471064388544e+01,3.198921575180087018e+01,-7.335112973896727340e+01,4.189879025704616566e+01,8.621603889605733428e+00,-5.434554550467936451e+01,-5.063434839719684533e+01,-2.500087466889233667e+01,-7.875016110421334758e+00,-2.732791174404082568e+01
-1.040647609620305190e+02,-7.419714205210527780e+01,2.986761890991942892e+01,9.046964224477396499e+01,-6.856573571545797563e+01,-2.136023506659415716e+01,-1.561281388477895149e+01,-8.319571671879322139e+01,-7.473691024746194955e+01,-5.416316545380539083e+01,-3.730123731259844533e+01,-2.247963900513332902e+01
-9.919890115063454061e+01,-8.866731376998166070e+01,1.053158738064716182e+01,9.527025979179009596e+01,-5.402054941276381328e+01,-4.069927986388827890e+01,-3.008767189723689484e+01,-9.252706045581248873e+01,-8.908032184730006975e+01,-6.380595080384087225e+01,-5.208822197157880396e+01,-6.643251764012026683e+01
-3.577328942280358604e+01,-2.017761199853205767e+01,1.559567742426585113e+01,2.687107360553493152e+01,-2.483557139080333087e+01,-1.478348723995051017e+00,-5.522977679728349187e+00,-7.745959391775923564e+01,-6.438459563952385167e+01,-3.928924343290601229e+01,-2.783598273957956337e+01,-7.134655434135760288e+01
-1.627929529949515342e+00,1.415195677921840556e+01,1.577988630916228274e+01,-7.367911205106995709e+00,-1.029080213338144745e+01,1.334255379123167984e+01,9.281261259862997548e+00,-7.215333417765668855e+01,-5.432974395044962534e+01,-2.941305597590245213e+01,-1.334453221092701369e+01,-6.162175571715074796e+01
-3.092282515014058930e+01,-5.198613871194062597e+00,2.572421127894091342e+01,1.695331040832925851e+01,-2.990624207513709365e+01,8.643423132700153388e+00,4.565037426064634474e+00,-8.148829818304761829e+01,-5.891577899986567957e+01,-3.417740099984141722e+01,-1.349388293323512045e+01,-1.773812828029296185e+01
-1.629797992325546474e+01,9.610669625083986034e+00,2.590864954833386236e+01,2.234743472041103018e+00,-2.024189161613102073e+01,1.858425474288281976e+01,4.728343320823050533e+00,-7.618450276093696516e+01,-5.862271291337594903e+01,-2.918229101685975024e+01,-8.764047424287049637e+00,-4.705567846179581437e+01
3.206602539057474388e+00,2.441980083627228737e+01,2.121319829720926364e+01,-1.248360699708401000e+01,-1.057775112359842851e+01,2.364504404460110010e+01,4.891171438019426887e+00,-8.552196461702826014e+01,-7.297055772475951585e+01,-3.394773848915359338e+01,-1.867503818083415013e+01,-5.685441262747031743e+01
-1.632908135277602568e+01,1.482877331466111670e+01,3.115785466743160725e+01,2.078264015308917578e+00,-2.531382093370141817e+01,2.382578643361309290e+01,1.735142641659166429e-01,-8.510070033210556062e+01,-6.779932537024768635e+01,-3.383375582915789437e+01,-1.882686767883744494e+01,1.665662919279563781e+00
-4.074503517051030599e+01,3.575805892172141398e-01,4.110261575972199921e+01,2.152036152544282288e+01,-4.005010135185494136e+01,1.912647727262748276e+01,5.215364280053218948e+00,-8.468072635793873815e+01,-6.750902768184877800e+01,-3.372035539829879269e+01,-2.385954836895378151e+01,3.090454192468229877e+01
-4.076126245617130195e+01,-1.411378382897518691e+01,2.664747862719061899e+01,2.632269054202311764e+01,-3.526659264354515244e+01,4.667111891497231824e+00,-4.383286037600786500e+00,-8.426205901461221970e+01,-7.697967638399926216e+01,-4.336754950479449633e+01,-3.377309267011975180e+01,-2.769778184861417003e+01
-4.077776670206640830e+01,-1.394532643033973329e+01,2.683244027172120028e+01,2.624525604877062790e+01,-3.536329502277064307e+01,4.847685595019036953e+00,-9.102444213076037016e+00,-8.872471448975360886e+01,-7.669128309068864269e+01,-4.813535039907833379e+01,-3.880751296123231953e+01,-6.190131463431322345e+01
-5.055455133839977577e+01,-1.865705369138384384e+01,3.189749764701048917e+01,3.592806299170788975e+01,-4.034020864713843224e+01,5.028193673109893069e+00,-8.942117765721739886e+00,-9.318870883680935435e+01,-7.640385930068137554e+01,-4.314377026684417160e+01,-3.408282157187777983e+01,-6.682606263150512405e+01
-4.081161972801761095e+01,-3.848972067355450832e+00,3.696264766065674223e+01,2.121111627310011727e+01,-4.043733361628721212e+01,1.496863140575455198e+01,-3.902314204502943085e+00,-8.301405797189227087e+01,-7.123741639463881370e+01,-3.327282122541835463e+01,-2.935903077733733824e+01,-3.271203196609448582e+01
-3.106897516543122606e+01,1.198912005593314234e+00,3.226788717101916859e+01,1.625442075157550903e+01,-3.077466997031014984e+01,1.514899406034745510e+01,1.136958972225063036e+00,-8.260077767347905819e+01,-6.607196563699328351e+01,-3.316251532773652144e+01,-2.463615280072193059e+01,-8.359228684551114341e+00
-1.042866208753644486e+02,-2.303340789603559102e+01,8.125321297932353559e+01,6.497798124414657650e+01,-9.431221768532525118e+01,2.996927688428101533e+01,1.105569427123873183e+01,-7.730888358685965045e+01,-5.602751818209885926e+01,-2.817286457012224332e+01,-1.015419982033447610e+01,-2.792765877618021975e+01
-9.454455999371201358e+01,-2.286593818192163496e+01,7.167862181178509218e+01,6.002180251539650158e+01,-8.464997665478460931e+01,2.526947509563267147e+01,1.453884196592166944e+00,-8.177839122953488982e+01,-6.550408508228204596e+01,-3.294388089816339971e+01,-1.519318397988303104e+01,1.302671804608997785e+00
-2.136279554041634299e+01,1.701314760369392332e+00,2.306411030078051638e+01,1.114588925905882277e+01,-2.130794666602940168e+01,1.080958387670415100e+01,-3.268478754433136402e+00,-9.112931599280918249e+01,-7.010167729208795606e+01,-3.771557620830901669e+01,-2.511311739631559448e+01,-2.802824287160374439e+01
-1.650133042657009597e+01,-3.011655434875525117e+00,1.348967499168938744e+01,1.107024610146397947e+01,-1.652612740726816298e+01,6.109598377068213182e+00,-3.111402088247356090e+00,-9.560167313720111792e+01,-7.958030566444385556e+01,-4.248796234471174671e+01,-3.015401215862161166e+01,-6.224040870632016009e+01
-2.140016749526887452e+01,-7.724855121284626591e+00,1.367531237397911781e+01,1.587487762685172044e+01,-1.662451850402694475e+01,1.409513724696580539e+00,-7.834893309018241325e+00,-1.000754777835741152e+02,-8.905998094064132431e+01,-5.214105109226605350e+01,-4.495588031807535856e+01,-6.229383155212821777e+01
-4.093930955010417705e+01,-2.219829064398921048e+01,1.874101890610987908e+01,3.043978839365135514e+01,-3.136311954609194430e+01,-3.290674962911854351e+00,-1.255895991368694808e+01,-9.479074490521492180e+01,-8.878071373841524405e+01,-4.715485416821951503e+01,-4.511873387515046829e+01,-7.698851718267285094e+01
-1.655875935608462157e+01,-2.203196833180241399e+01,-5.473208975722826608e+00,2.060498293174703832e+01,-7.061930092109802715e+00,-1.287097256997959960e+01,-1.728360938650764211e+01,-1.041474893237132449e+02,-9.826251454144758668e+01,-7.144938321378282353e+01,-5.504258476690816337e+01,-4.288447127403361492e+01
4.198148035801693823e+01,-1.210589448749622221e+01,-5.408737484551814134e+01,-1.362953426073278962e+01,4.651905032391100292e+01,-3.221138397179741730e+01,-3.176884919120935891e+01,-1.086257257057895629e+02,-1.077453936902951739e+02,-9.086464978146061355e+01,-6.496744485581010053e+01,-7.710169940273797806e+01
-7.515859311789458275e+01,-2.170007538473312536e+01,5.345851773315652622e+01,4.973624128935631461e+01,-6.582017782578495257e+01,1.676808597592887651e+01,2.545313236367718446e+00,-7.894546856059609752e+01,-6.842936137616828773e+01,-4.684066531857807547e+01,-2.609332592233252512e+01,-5.276020704900172831e+01
-1.093389824680753719e+02,-2.153451726880034656e+01,8.780446519927016880e+01,6.430231402648803396e+01,-1.000796140549400519e+02,3.158743243204498441e+01,1.245887048470350500e+01,-7.366673224604723202e+01,-6.327442764754223958e+01,-4.185744116459197528e+01,-2.138023967088914645e+01,-4.793999959854100013e+01
-5.567969029957214389e+01,-6.729226356392885577e+00,4.895046394317449057e+01,3.006868834138681024e+01,-5.137925781226491040e+01,2.200665054494946560e+01,1.261181514876932575e+01,-8.302953098465511061e+01,-6.300060243055291664e+01,-3.687498856931654245e+01,-2.154819774953764266e+01,-3.336108235008718736e+01
-5.570071910321077979e+01,-6.564208838723732953e+00,4.913651026448233949e+01,2.999536855450514850e+01,-5.147910844182860757e+01,2.218573543044759333e+01,7.884139812675520886e+00,-8.751387887365818585e+01,-6.760789554606284923e+01,-4.165331871257417617e+01,-2.171721176683269761e+01,-3.830346052955439262e+01
-3.132207126259572760e+01,-1.127947088891191996e+01,2.004260037367918201e+01,2.016235892517050488e+01,-2.717916518955828309e+01,2.844682168619829810e+00,-1.724162954845130713e+00,-9.687978988183749607e+01,-8.197631671246485041e+01,-5.619244271005950964e+01,-3.652729329584242635e+01,-9.087139303729806272e+00
-3.134374908117305836e+01,-1.355018666993331067e+00,2.998873041417517626e+01,1.520966366786174362e+01,-3.215942722780233254e+01,1.278348581257458427e+01,3.306899404554080490e+00,-9.160727784062586920e+01,-7.682587553850120798e+01,-6.097237160684279900e+01,-3.669845386865594605e+01,-6.283212378968377720e+01
-1.672575480311311580e+01,-6.070858322078912295e+00,1.065489648102975018e+01,1.025728696373166926e+01,-1.273989367418912444e+01,3.202141397676648182e+00,-2.094268055332135248e+01,-1.009763564371164932e+02,-9.119658151370443022e+01,-6.575311636516754277e+01,-5.639070496566033341e+01,-7.753841904896624726e+01
-6.988090629439035695e+00,-1.078699599403704923e+01,-3.798905364602376267e+00,1.018523296927687127e+01,-3.080563606682220623e+00,-6.379356052076474271e+00,-2.079291026450934154e+01,-1.054670392089702773e+02,-9.580844399931132216e+01,-7.541468785272267894e+01,-7.120405800053767109e+01,-5.320603006373720234e+01
-5.581075872797504900e+01,-1.550343781184797365e+01,4.030732091612280499e+01,3.451350581977802534e+01,-4.710143607483252737e+01,1.331898848137136326e+01,-1.088379714476616655e+01,-9.043933953979622231e+01,-9.066147221917559307e+01,-8.019709683233898545e+01,-6.161852430240800516e+01,-3.863496172097641335e+01
-8.511376122285372503e+01,-3.486018988625334458e+01,5.025357133659619535e+01,5.884210961990494582e+01,-6.672251009344171280e+01,8.617170011282864195e+00,-1.561534858409550353e+01,-9.005327065928244679e+01,-8.551567525448128038e+01,-7.522035395263539215e+01,-6.179411510319978618e+01,-9.425218824262211470e+00
-1.339371001550255755e+02,-3.469725829717639698e+01,9.923984185784507872e+01,8.317104841815886118e+01,-1.156237846100802926e+02,3.319518353871882965e+01,-8.275719498331177704e-01,-7.502884565093128799e+01,-6.573106204748647485e+01,-5.072446974531891328e+01,-4.245084153737805366e+01,-6.317680611648137301e+01
-1.339607774280316903e+02,-3.941464907971542431e+01,9.454612834831222301e+01,8.798032617323282523e+01,-1.157252584583446122e+02,2.849302403942571971e+01,9.079525405516081449e+00,-6.976607746406958199e+01,-6.546764141382156765e+01,-4.574945463531794587e+01,-3.774871465212856947e+01,-2.420972828780083930e+01
-1.047047947661356773e+02,-2.949236821536593212e+01,7.521242655076579808e+01,6.838994672797757346e+01,-9.142693031966993544e+01,2.379068645167410878e+01,-5.414063865934878095e+00,-7.914497892538106782e+01,-6.520542205668721181e+01,-4.565531895852015509e+01,-4.280774542086801659e+01,-2.428398997222848621e+01
-2.664915371143438705e+01,-4.930421633700035500e+00,2.171873207773052883e+01,1.463991380761028793e+01,-2.320879871841862041e+01,9.328165673129378277e+00,-1.014834711243802445e+01,-9.828556274235515389e+01,-7.958441257391993418e+01,-5.532207297380462308e+01,-4.786794475104787239e+01,-5.363959574940107444e+01
4.164614432674164846e+01,2.451118477121823602e+01,-1.713495955552711081e+01,-3.422976894737567477e+01,3.036913793692161789e+01,4.625456569131280560e+00,-1.000333167760954112e+01,-1.027878414934229170e+02,-8.420462145412261634e+01,-6.498972686271322630e+01,-5.292932348244922025e+01,-4.883655014351762702e+01
7.461097991529998197e+00,2.955244511110803529e+01,2.209134711957447905e+01,-1.965909792500884734e+01,-8.773118712654127904e+00,2.432255398335075114e+01,-9.902489400181124779e-02,-8.777182761333685335e+01,-6.930605706803932264e+01,-6.001829072103937790e+01,-3.847189238214839690e+01,-4.994857616091321617e+00
-1.696429407894409636e+01,5.313353476124206054e+00,2.227764755506486694e+01,4.671930501526958324e+00,-1.863556702071769067e+01,1.473945273989036764e+01,-1.947543408190338710e+01,-8.739753338805519434e+01,-7.392872766563269238e+01,-6.480777455089084071e+01,-4.841566214375883703e+01,-3.923452257105833496e+01
-7.230033257232996391e+00,5.473903927475429754e+00,1.270393718470512212e+01,-2.766800193442513489e-01,-8.978205337149884002e+00,1.003614763920542785e+01,-3.885256654528557618e+01,-9.190497095960617457e+01,-8.343264137886372112e+01,-6.959818825655392516e+01,-5.836064338857258349e+01,-1.979554936796610676e+01
-1.701612090846332848e+01,1.051409050620543084e+01,2.753021141466558674e+01,4.535074168731350497e+00,-2.372103199467066759e+01,1.997263345735287743e+01,-3.383042955728999601e+01,-8.177415233094973246e+01,-7.341780622161742542e+01,-6.462954164130701429e+01,-5.366684666147108373e+01,-3.939794232517668604e+01
-5.608255837555961421e+01,-3.966092758500771254e+00,5.211646561705579472e+01,2.886719671778488561e+01,-5.310404529822120168e+01,2.502890494619131445e+01,-3.368903034428894472e+01,-7.652508936941032403e+01,-6.828423008820061568e+01,-5.966184440565868385e+01,-4.409428242540776921e+01,-6.388170571213449733e+01
-7.074934695828770259e+01,-1.356665184338679353e+01,5.718269511489801005e+01,4.343969126137032077e+01,-6.296724350673990500e+01,2.032495682882767341e+01,-3.842837607897644858e+01,-7.615779381295909900e+01,-7.291192075659108696e+01,-5.957510614986283315e+01,-3.940296106349471472e+01,-3.956684373497727591e+01
-9.029648787993809833e+01,-3.292759271901454099e+01,5.736889516092079333e+01,6.289256139137737023e+01,-7.283062480638136549e+01,1.074078379601488464e+01,-4.804847387773646972e+01,-8.555227727601818799e+01,-7.754088589216055993e+01,-5.460933637880883396e+01,-4.447289288679159824e+01,-1.525336052832413358e+01
-6.104398225781177700e+01,-3.488921334325731038e+00,5.755506092348342406e+01,3.354581063484409498e+01,-5.829418728943978323e+01,2.555638050825437801e+01,-4.790933079468244671e+01,-8.518855124908239418e+01,-6.753113304711702369e+01,-4.476454450738576440e+01,-4.466408813924071808e+01,-7.012601689285418161e-01
-1.715183109794892147e+01,1.549356387863813467e+00,1.870118748581023382e+01,9.079442448356974893e+00,-1.935792895133556613e+01,1.109174159837424689e+01,-6.241095381284337407e+01,-9.458662709310918615e+01,-8.680266965851920702e+01,-6.420073986584503700e+01,-4.973655699689545884e+01,-1.055054670168832764e+01
-6.598003531552657819e+01,-5.685276545413674398e+01,9.127269861387478755e+00,6.269346023051454608e+01,-3.898184770756698470e+01,-2.289313832399091808e+01,-7.691334983297204531e+01,-1.186265160301029482e+02,-9.631550304343696212e+01,-8.363793169803108185e+01,-7.433030956191805672e+01,-4.968122415234346789e+01
-8.064859574955157484e+01,-6.645529272973122659e+01,1.419330301981814557e+01,7.238786732393229784e+01,-4.884594141256295075e+01,-2.759826465508480453e+01,-8.653652565759830395e+01,-1.231482291270412759e+02,-1.058296403865035131e+02,-9.331612914582505880e+01,-7.940535584896946375e+01,-3.513329651592832192e+01
-7.579751314903101900e+01,-5.653823124395785982e+01,1.925928190507111282e+01,6.744266699300322898e+01,-4.895020786094724485e+01,-1.766364277210815459e+01,-7.664048797413047964e+01,-1.130317772774218525e+02,-1.007050887246139155e+02,-8.347534122835783421e+01,-7.472170576731885205e+01,-6.938676773381280327e+01
-7.094678815201181976e+01,-3.198158671586794455e+01,3.896520143614195320e+01,5.273786240308440654e+01,-5.393464477739355090e+01,2.030721978392801219e+00,-6.186524334746283671e+01,-8.827717119469038209e+01,-8.582185493922688124e+01,-6.387557683263041497e+01,-6.027936911103246587e+01,-7.924164167169217876e+01
-6.121642128078202916e+01,-2.545364787327326184e+00,5.867105649345283780e+01,3.315345662202452104e+01,-5.891924980838189896e+01,2.660482426979616832e+01,-4.709079822779340674e+01,-7.816442142468015675e+01,-6.605994576245046801e+01,-5.403684472219615031e+01,-5.071835556389648048e+01,-3.541792210185309386e+01
-2.708641295228307300e+01,7.370428947267136266e+00,3.445684189954840093e+01,8.689452639754724927e+00,-2.974402051918360002e+01,2.189865877136454131e+01,-4.695715896794776256e+01,-8.269353836708066297e+01,-7.069936779405865934e+01,-6.371915355439826101e+01,-5.091867471289452851e+01,-4.039561270207484256e+01
-5.151676349707820179e+01,-3.639421108635164614e+01,1.512255241072480771e+01,4.278585339215724304e+01,-3.472895439987802035e+01,-1.208777986961482043e+01,-6.634433183689880309e+01,-9.210453228929758041e+01,-8.998012751565410383e+01,-7.340251188999968690e+01,-6.576033605835550588e+01,-6.489471706974016740e+01
-1.052274731688129776e+02,-7.527929044113776058e+01,2.994818272767354372e+01,9.152266176639405160e+01,-6.899404887469654568e+01,-2.167449702239652254e+01,-8.085232301807351973e+01,-1.112774133246227848e+02,-9.462223128914153847e+01,-8.796692818807530045e+01,-8.060334901173986566e+01,-7.963523872405997395e+01
-5.645854212800554706e+01,-1.168481462092792356e+01,4.477372750707610294e+01,3.289988057913937780e+01,-4.957930129853143342e+01,1.753850194644232730e+01,-5.632113859624985253e+01,-8.653219146089429614e+01,-7.486568534569188671e+01,-6.349241079424722045e+01,-4.664772288534280875e+01,-3.581718109260857830e+01
2.070029570835806965e+00,4.214921092834894978e+01,4.007918135751173594e+01,-2.084248743473064636e+01,-2.040470894821552861e+01,4.211121167463349479e+01,-3.667078455300888606e+01,-6.178887653723423057e+01,-5.511049578468698940e+01,-4.389896793890108739e+01,-1.757346689387913585e+01,-3.592054750974098454e+01
-3.700175804498211107e+01,-6.497219215319834262e+00,3.050453882966101560e+01,2.301556040648174317e+01,-3.515026902996399372e+01,1.300362678160595564e+01,-6.582126677834787642e+01,-9.560747825647108300e+01,-8.903666858597236455e+01,-7.310660774966176234e+01,-4.218059017603150807e+01,-2.626534123497317808e+01
-4.679390489813800968e+01,-2.586411048164470827e+01,2.092979441649215744e+01,3.759402676229167639e+01,-3.525597869489705261e+01,-1.464258147470282267e+00,-7.057259107848935287e+01,-9.526800619423119088e+01,-9.368420961497743349e+01,-8.767533825816278181e+01,-5.214910181266893119e+01,4.682843452055875844e+01
-2.730641086409853813e+01,-6.191468301142776909e+00,2.111494256295477356e+01,1.801291426727604517e+01,-2.560183504457977222e+01,8.467551446603689413e+00,-6.556476316752635114e+01,-9.005046979186514022e+01,-7.881312461214639598e+01,-7.296516738875041597e+01,-4.747901082367166481e+01,4.672077655575753852e+01
-3.221927576298712381e+01,3.720701911261356187e+00,3.593997767424764334e+01,1.307222551880995454e+01,-3.546783513085730988e+01,1.839905010962217347e+01,-5.567778865811571620e+01,-7.995487834889556211e+01,-7.370341918521965852e+01,-6.313610294718603200e+01,-4.281032615762376281e+01,-3.634831835877413653e+01
-1.761249936286080953e+01,3.872394753145401936e+00,2.148489411600553467e+01,8.131963080964856871e+00,-2.093397595759145702e+01,1.369023237323177788e+01,-6.531167306262807415e+01,-7.962124102687077709e+01,-7.835509881434740009e+01,-7.282815262360770703e+01,-5.278305668910896031e+01,-2.181885347913968687e+01
-3.228608138774021086e+01,-8.563951765810671191e-01,3.142968621115863925e+01,1.783212949458578578e+01,-3.080025448334750493e+01,1.386109274848436002e+01,-6.030642179714860163e+01,-7.928956685749362521e+01,-6.836816885957807699e+01,-5.812132400024358958e+01,-3.835721121980744641e+01,-2.410832054227871168e+00
-5.672002151803307157e+01,4.174326717808686027e+00,6.089434823584143430e+01,2.753272727928671060e+01,-6.018666762027812211e+01,3.355162572176737967e+01,-4.554204018357513206e+01,-6.431986474884590166e+01,-5.350263456691871511e+01,-4.829562455769757179e+01,-3.369279848101650998e+01,-3.668425730605059698e+01
-7.139431937622113367e+01,-5.554449709017319492e-01,7.083887440531921698e+01,3.723375892546263799e+01,-7.005321222064759468e+01,3.372182574788249809e+01,-4.053853345599292624e+01,-6.399214349256020284e+01,-4.351850107962179237e+01,-4.335106168503602220e+01,-2.902982714092252792e+01,-5.143913242386416584e+01
-6.166897450351434173e+01,-3.456571564882848691e+01,2.710325885468583351e+01,4.693522688059663039e+01,-4.575988505575005405e+01,-5.148312757350620217e+00,-5.993590677037589387e+01,-8.318641177098895412e+01,-6.769577345184694650e+01,-6.768764268987274590e+01,-4.876830581187079616e+01,-7.107546054545321113e+01
-4.706398634553654858e+01,-5.393649070458400274e+01,-6.872504359047269418e+00,5.175713353461554078e+01,-2.146668280956357933e+01,-2.937879540737699458e+01,-8.421416520382827287e+01,-1.072626781534369229e+02,-9.187445664948570823e+01,-7.738537479609290415e+01,-7.338824304622434624e+01,-3.215324473318359821e+01
-8.125935425227159215e+01,-5.378777548051311896e+01,2.747157877175886753e+01,6.633948120619567135e+01,-5.573360209236959406e+01,-1.456962781617390945e+01,-7.921331373766277295e+01,-1.020609510776543658e+02,-9.165455553196942162e+01,-7.244426512921545225e+01,-6.872964731795956084e+01,-5.667248796621525742e+01
-1.056950774732550258e+02,-6.827957524630539865e+01,3.741550222695020267e+01,8.580227212764174283e+01,-7.048063944866754582e+01,-1.440081557474697505e+01,-7.421335723857573896e+01,-9.198123883132703327e+01,-8.655607483027222315e+01,-8.702432070222947402e+01,-6.895252700283363367e+01,-4.703319314554768482e+01
-3.741115514135667297e+01,-1.933189518734289436e+01,1.807925995401454244e+01,2.718550843166650921e+01,-2.666779134750095537e+01,4.076357519337463486e-01,-7.409430045218047667e+01,-9.166354954782403297e+01,-8.145901913774643788e+01,-7.232554840808353447e+01,-6.429689036995833362e+01,-6.667536309478470002e+01
-1.304758627557711925e+01,2.473525958223418542e+01,3.778284585781221949e+01,-7.030807839963417294e+00,-2.677505417991380909e+01,2.985572061278654132e+01,-4.469614800842318658e+01,-6.206789121477726923e+01,-5.196339291569206864e+01,-4.298795502072979957e+01,-4.012274558525542290e+01,-5.703900055329141594e+01
-5.700436981331611008e+01,-4.398116017781028120e+00,5.260625379553616199e+01,3.195332529836224467e+01,-5.616242427256910474e+01,2.514343344943960901e+01,-4.945890443507863665e+01,-7.151427168931277834e+01,-5.662920050938210181e+01,-6.245154720805044235e+01,-5.011010072299107776e+01,-8.156410816744705983e+01
-9.120150462837969485e+01,-4.329202706193783712e+01,4.790947756644310118e+01,6.605790979852736200e+01,-7.090989789043388214e+01,9.107686774298926480e-01,-5.910257417267057889e+01,-7.120269871280362395e+01,-6.129644616551160397e+01,-6.727633154525763359e+01,-5.521896377730797667e+01,-4.265068848379744537e+01
-1.058789895066792468e+02,-3.826647860937382006e+01,6.761251089730679098e+01,7.088294756118799000e+01,-8.565747121664651331e+01,1.571772068404027678e+01,-6.386716157893275181e+01,-7.577317991658765095e+01,-6.596513403918665119e+01,-5.746231451545672542e+01,-5.544934266424770186e+01,-1.349874395456412834e+01
-6.199682311004603719e+01,1.067852431925021861e+01,7.267534742929771596e+01,2.690844040638623724e+01,-6.624514032858128587e+01,4.028428383326777862e+01,-4.423267092423652969e+01,-6.570572282055158553e+01,-5.111526819187912452e+01,-4.276950250735546177e+01,-4.592124521806653092e+01,-3.314827696121537315e+01
-6.203500396714104426e+01,2.546297673629442926e+01,8.749798070343703671e+01,1.709439007173453007e+01,-7.611290118722254761e+01,5.509045245605609153e+01,-3.435910639319688897e+01,-5.076033483503965016e+01,-3.626685259365746106e+01,-2.807790182438014170e+01,-3.151467919325317979e+01,-4.303928983565785416e+01
-6.207353049003359047e+01,1.206873656966084951e+00,6.328040414700136296e+01,3.168079823531792627e+01,-6.158074963889851006e+01,3.085622082911999797e+01,-4.888647209578422093e+01,-6.997702326893843860e+01,-5.069989113397164715e+01,-3.778751870139556246e+01,-4.150965227414993564e+01,-9.011784863362318987e+00
-3.552400995533149697e+00,6.230210080079899626e+00,9.782611075614866536e+00,-2.532333464256389277e+00,-8.008681426521906843e+00,6.621583167080661525e+00,-6.341477207320566833e+01,-8.431579533300509866e+01,-7.001438762815791961e+01,-7.189835931286663140e+01,-6.614617208076859356e+01,-3.842576428315935289e+01
-8.471613731749634724e+00,6.372980989735263613e+00,1.484459472148683545e+01,2.294996584583832711e+00,-1.299669221651763529e+01,1.166653363741879268e+01,-5.842401028999945822e+01,-8.401665812988210291e+01,-6.981034580872933759e+01,-7.673042976057746500e+01,-6.150424616034306524e+01,-4.401230293212684330e+00
-4.267116690702994219e+01,-1.788481863730137178e+01,2.478634826973062388e+01,3.152278997691670526e+01,-3.262477763097917460e+01,2.071066381608311247e+00,-5.831419062280033216e+01,-7.883961864030575839e+01,-6.472776931048446158e+01,-7.180373604993982894e+01,-6.174388197222445029e+01,2.962181493730572868e+01
-2.807105869797800324e+01,-3.103193823262488493e+00,2.496786487471766947e+01,1.683104829045755935e+01,-2.785293325985967883e+01,1.199517552674328869e+01,-5.820531685623392093e+01,-6.390468371929420499e+01,-5.964666166417033821e+01,-6.687828407533159236e+01,-5.710508688037960212e+01,-2.419663075153851395e+01
-4.763128723703367484e+01,1.917850418004681146e+00,4.954913765504061018e+01,2.165977307518234696e+01,-4.748115465272235269e+01,2.679885518623225948e+01,-4.345739268498928709e+01,-6.361186010374087374e+01,-4.968702630060104042e+01,-6.195407962016962955e+01,-5.246786815491903155e+01,-1.945656952021145969e+01
-1.351185060290334228e+01,2.058309079866710078e+00,1.557015968277239537e+01,6.968965849605327278e+00,-1.342943730906462996e+01,7.442099453362727601e+00,-5.311042171921766908e+01,-7.308115442238137405e+01,-5.924886655857706330e+01,-6.191112836316008838e+01,-5.759223297647462658e+01,3.408199647811091637e+01
1.084725317284767954e+01,7.078177156029063610e+00,-3.769076016816178765e+00,-7.721371892010507665e+00,5.982223318047559246e+00,2.724902397718540925e+00,-5.788440748897892973e+01,-8.255257319767589763e+01,-6.393218568899916221e+01,-5.698943588407195904e+01,-7.247818843724731153e+01,-4.414093490081314997e+01
1.046026083516384375e+00,1.697744963413748565e+01,1.593142355062364146e+01,-7.771238665788764877e+00,-8.766168196865908868e+00,1.752725807015443849e+01,-5.289935344298215369e+01,-7.738612283865658981e+01,-5.885698685232517846e+01,-5.206900766855738283e+01,-6.784574153492189907e+01,-5.245365793496954865e+00
-3.315552987121340323e+01,1.711612148842956316e+01,5.027165135964561671e+01,6.819367014198229882e+00,-4.303460726531604763e+01,3.232916050444377731e+01,-4.303526294637410388e+01,-6.734180963472212511e+01,-4.890327311602431593e+01,-5.202984911344582031e+01,-5.833489916515316054e+01,2.388870167767726116e+01
-3.319741267902701054e+01,1.237418767238722594e+01,4.557160035141700405e+01,1.165044663695788429e+01,-3.826308927421782613e+01,2.761060370704290889e+01,-4.781213928423046156e+01,-6.705963975798574950e+01,-4.871104745868433383e+01,-6.175196553060978033e+01,-4.882566812260625966e+01,9.101265397077639818e+00
-3.811962029304747546e+01,7.631643116619169831e+00,4.575126340966955496e+01,1.648200168514705766e+01,-4.325160956337917639e+01,2.777158164495471127e+01,-4.282998566742244151e+01,-7.653961926942267269e+01,-5.828031277649310482e+01,-6.171536214559983335e+01,-6.371805510912483328e+01,1.871232323608477799e+01
-1.376215061798479056e+01,7.768482732448582340e+00,2.153063335043643534e+01,1.794033626116450009e+00,-1.896016341392312654e+01,1.329208824262486388e+01,-5.248880523515428109e+01,-8.114175411930978044e+01,-6.297107188353827922e+01,-7.144004409152398694e+01,-6.885206673714311876e+01,3.808187304096225034e+01
4.963499848042266649e+01,7.904701416452537543e+00,-4.173029706396691552e+01,-2.753345608563713398e+01,4.437125394047255611e+01,-1.582788260927718227e+01,-7.678860105084423537e+01,-1.003860501391056204e+02,-8.230332750354796190e+01,-9.580601639912204348e+01,-9.838770952073596732e+01,-2.551008737118957725e+01
-5.776817085114583250e+01,1.292029405215017412e+01,7.068846490329937637e+01,2.121953400443879545e+01,-6.309735271335107853e+01,4.289166296062788319e+01,-3.276937609277496222e+01,-5.619251303190087299e+01,-4.307708225972778848e+01,-4.697328398541203853e+01,-5.960498986001146449e+01,-5.982356019793827784e+01
-1.114916564525760805e+02,3.257525550646285240e+01,1.440669119590424430e+02,4.069300535245253059e+01,-1.266459785659635315e+02,8.697071879990157584e+01,1.124886674194737957e+01,-2.176114837902765231e+01,-8.732338679331585141e+00,-1.766185165754597364e+01,-3.058391403833552147e+01,-2.093854761325328440e+01
-6.761545609796145584e+01,3.270958061904487124e+01,1.003250367170100077e+02,1.624695939522548827e+01,-8.283461872908284818e+01,6.760927869543597524e+01,-3.293875393660152362e+00,-2.637196167090912624e+01,-1.830909922104751786e+01,-2.251172414185814219e+01,-4.060448824332232931e+01,-1.621505174017127260e+01
-2.373956744990058354e+01,4.748326418733684307e+01,7.122283163724131327e+01,-1.307860246484696987e+01,-4.878326818311617785e+01,5.800733633612769324e+01,-3.197605331311748067e+00,-3.098495834028246065e+01,-2.300736630428307095e+01,-2.736290611528795935e+01,-5.062671859114959716e+01,-1.733074657209492386e+00
-1.890398807131305148e+01,4.273630095304624632e+01,6.164028902436336210e+01,-1.312367884641352944e+01,-3.913192178174438851e+01,5.328488530550009017e+01,1.777674099085301052e+00,-3.560014377497777360e+01,-2.282714231895789680e+01,-4.197540221540956651e+01,-5.577061113138146453e+01,-5.069261841380891553e+01
-2.382871546435033849e+01,3.798868559385782362e+01,6.181740105821246090e+01,-8.288268364852436676e+00,-4.412057428597867670e+01,4.856191909286583552e+01,-7.888039930243971654e+00,-4.509752331405601211e+01,-3.240842962150877327e+01,-5.170921703192018981e+01,-6.579617183705251193e+01,-3.133368502723574522e+01
-9.233747094094836072e+00,5.764041272037417940e+01,6.687415981447355762e+01,-2.297236961889110063e+01,-3.934922038585792592e+01,6.335843110211317963e+01,6.845249755859912355e+00,-3.019710224061589088e+01,-1.759123052994152658e+01,-3.216435509384825764e+01,-5.142340659427377858e+01,5.146372352432237562e+01
-3.367908039514509255e+01,4.801147687258183083e+01,8.169055726773169113e+01,-8.375981186258325550e+00,-5.897785470455765733e+01,6.351441465146116627e+01,1.181754033296721929e+01,-2.017888578077707606e+01,-1.253554732410955452e+01,-3.214082086531583826e+01,-5.169232119896681610e+01,-2.380394718908629414e+00
-4.348471276821817355e+01,4.326187251489228913e+01,8.674658528311549333e+01,1.340898376384404234e+00,-6.396647179204103395e+01,6.366986296703605319e+01,1.190882896978310868e+01,-1.504287911264262156e+01,-1.236138225264507540e+01,-3.211861875175721082e+01,-5.196292136072536749e+01,-3.670604172513150587e+01
-2.401064156914563341e+01,4.339159403641318846e+01,6.740223560556415805e+01,-8.461729472668803709e+00,-4.455506611490677926e+01,5.406476917834994822e+01,7.119112820873358061e+00,-5.029087380011564079e+00,-2.428737541789484311e+00,-1.745775310803665903e+01,-5.223521270714986997e+01,-2.711321946121458737e+01
-1.917686410309809730e+01,4.352063575549867380e+01,6.269749985860237018e+01,-1.338386326580540597e+01,-3.978363205431860194e+01,5.421912632043529356e+01,-7.431610973477882354e+00,-4.777515704661983165e+00,-2.257615402795202897e+00,-1.743822824608888311e+01,-5.250920078485180653e+01,-2.881929865813415148e+00
-1.922337763164403057e+01,4.364899192239937520e+01,6.287236955404929972e+01,-1.342550152365116745e+01,-3.989216391534316131e+01,5.437292733930783584e+01,-1.710334527837696328e+01,-1.428816919435234212e+01,-6.968018037899145867e+00,-2.718004844255730745e+01,-6.254489105807856930e+01,3.110782515088998679e+01
-4.855017937933284600e+01,2.913665672096278314e+01,7.768683610030180375e+01,1.093335724832304656e+01,-6.440065593438663427e+01,5.452616509552893831e+01,-2.189609294972356324e+01,-9.161052944164321588e+00,-1.919947642966224777e+00,-2.716321794072596774e+01,-5.306228890543430765e+01,1.141604368130496283e+01
-3.395726652744269103e+01,2.438362427461288462e+01,5.834089080206202027e+01,6.012714553686448582e+00,-4.498910227522267746e+01,4.003883236634271725e+01,-4.620985681818600455e+01,-1.867617203308851259e+01,-6.633406407278307881e+00,-2.714774094626956469e+01,-5.822139961707337363e+01,6.362723798355581550e+00
2.943536379084617494e+01,5.866988865328163882e+01,2.923452486244219273e+01,-4.282742810201798989e+01,-1.177497026921908940e+00,4.507092185066616707e+01,-6.564463966984732224e+01,-3.307353151822986348e+01,-1.622839651189470089e+01,-3.201362162300146252e+01,-5.362222839474334535e+01,-8.452136445202391712e+00
3.426771446818264621e+01,4.415544386988358383e+01,9.887729401707936461e+00,-3.798706919932616444e+01,1.335416577587655240e+01,2.570242617740776581e+01,-9.972044421829325245e+01,-6.699313642140381830e+01,-3.558492012278131256e+01,-4.176086408909488057e+01,-6.366478035230074539e+01,-8.628539003676490182e+00
3.421978838128674028e+01,3.452028387013638167e+01,3.004954888568960314e-01,-3.314620717912061565e+01,1.812589211605568806e+01,1.609333791663916458e+01,-1.142772730686175748e+02,-8.139499170289417407e+01,-4.030297937585621071e+01,-4.174947241044978341e+01,-5.906906051384727618e+01,3.999351416944070081e+01
1.465158836392819097e+01,3.464440253188982410e+01,1.999281416796914002e+01,-2.342484042878326989e+01,-1.502312033381542733e+00,2.600364959314453017e+01,-1.044351286828517971e+02,-9.091910222855238999e+01,-4.502257635918057588e+01,-4.173945059310703698e+01,-5.447507381138796489e+01,-1.386597888585924743e+01
-1.467688279062209133e+01,2.012779367443850376e+01,3.480467646506836132e+01,-3.942967287838821555e+00,-2.601044071199569885e+01,2.615335369521729802e+01,-1.238740133582280976e+02,-1.102054727411715191e+02,-6.438371309799958908e+01,-6.125080257708639664e+01,-7.428282508391274064e+01,-9.167020142478385480e+00
-9.845622307650179650e+00,2.025045106926169325e+01,3.009607337691987539e+01,-3.980586063581455392e+00,-2.123848795462914296e+01,2.630244267442584771e+01,-1.286739292158986814e+02,-1.148541078380366685e+02,-6.910639154025606956e+01,-6.124353222784561979e+01,-7.945231907267239535e+01,5.290388423099233961e+00
-5.014627408581542767e+00,2.525236844886293852e+01,3.026699585745274135e+01,-8.897695046227040550e+00,-1.646644777222296341e+01,2.645090894252804858e+01,-1.237148781906041819e+02,-1.097450119532250454e+02,-6.895061354115125596e+01,-7.099764332393448285e+01,-7.974356040979675697e+01,9.986244838220219577e+00
-1.482389530139783496e+01,3.513353950943108828e+01,4.995743481083745507e+01,-8.934292515509575594e+00,-3.121431414356749201e+01,4.123874486886208501e+01,-1.089968620246188067e+02,-1.046381893489350290e+02,-5.903638085340723762e+01,-6.123313954654816627e+01,-7.027655360881155389e+01,4.054712816672889630e-02
-2.951342317723301534e+01,3.525395790542127372e+01,6.476738108266306426e+01,-4.090376740147984691e+00,-4.596208101038035920e+01,5.114594277345996431e+01,-1.089198822726271345e+02,-9.953364411726890637e+01,-5.888369512750985280e+01,-5.147002447668422320e+01,-6.569130306465994806e+01,3.889329330741145441e+01
-2.956320820126462579e+01,4.513361724080952797e+01,7.469682544208322383e+01,-9.005945977313720263e+00,-5.094974226477899037e+01,6.105249491350699742e+01,-9.908394031277900638e+01,-8.955138018771715736e+01,-5.385255791765337108e+01,-4.658830160132936271e+01,-7.086781305990089663e+01,1.021444813608926836e+02
-1.985324750170329366e+01,4.037251106129931344e+01,6.022575856301196495e+01,-9.040998473049896234e+00,-4.129729173437641521e+01,5.143839346885144437e+01,-9.412903735726762022e+01,-8.445140133701551122e+01,-4.394297068863350830e+01,-3.194797432534828019e+01,-6.140608776995414786e+01,1.899410920817853565e+01
-1.502353816733829817e+01,5.025063284843072609e+01,6.527417101577864855e+01,-1.883553246031437922e+01,-4.140472317593371798e+01,5.646363053417042011e+01,-8.429517446243036716e+01,-7.935371119994934475e+01,-3.891493482416422722e+01,-3.194904598479656244e+01,-6.170613126644099111e+01,2.856217468379594493e+01
-4.923407725031178472e+01,1.620797601796900267e+01,6.544205326829070657e+01,1.529045384297625354e+01,-5.615203027614317222e+01,4.196819811921774601e+01,-9.398235253837289349e+01,-8.889831327777775982e+01,-4.852845163566734499e+01,-3.683151985785452354e+01,-7.176794752004690281e+01,3.968675556066578736e+00
-2.976486176128675964e+01,1.684533929703142974e+00,3.144939569100014509e+01,1.525696222687015613e+01,-3.185920665146081987e+01,1.771208815667880287e+01,-1.085505723524117769e+02,-1.033252109390481479e+02,-7.766352236297862532e+01,-7.099539916577623444e+01,-9.647154039720167873e+01,-1.086639044122009601e+01
4.344111336811401713e+00,1.644029990817893250e+01,1.209618857137808590e+01,-9.176005524352342846e+00,-2.686245852692824343e+00,1.297529251953367080e+01,-9.871983452300817419e+01,-1.031144074109000996e+02,-7.752014816031524447e+01,-6.124068705910017485e+01,-9.677691364534831564e+01,-2.082302558331097941e+01
1.405284511603932884e+01,4.095526725535208357e+01,2.690242213932362247e+01,-2.872844763307726623e+01,-7.673141384318338254e+00,3.263780304032270152e+01,-7.913013951417555347e+01,-8.338590576941484755e+01,-5.785833007796252048e+01,-4.660738660100547293e+01,-8.244407087583198290e+01,-3.078123213231865662e+01
4.328134265261658697e+01,7.522942923804841087e+01,3.194808658544299362e+01,-5.804036230691425402e+01,6.860113270958500209e+00,5.229961151520161877e+01,-7.418148764272021367e+01,-7.341970894184528618e+01,-4.795806905869437031e+01,-3.685550076587760771e+01,-8.275301555867048364e+01,-1.146101232122802216e+01
8.226960699087803164e+01,7.046277905641068173e+01,-1.180682793445586043e+01,-7.759174770441991598e+01,4.579352463193453104e+01,2.804070969135999292e+01,-7.411387909403694607e+01,-8.297581971977572834e+01,-5.269936594987849077e+01,-4.662503245118194428e+01,-9.282375102730455296e+01,-1.902368351210437680e+00
7.245764110484965670e+01,2.665530981900184315e+01,-4.580233128583603985e+01,-4.834260190319884032e+01,6.032709919292905454e+01,-1.085891073842880417e+01,-1.033273139307725472e+02,-9.253424076799979048e+01,-6.720222151367761398e+01,-7.591598448315558301e+01,-1.077762804785917723e+02,-2.162530239986896063e+01
-5.674552125438768968e+00,-1.715298544881510878e+01,-1.147843332336426414e+01,1.018707710775126785e+01,1.660843395903476960e+00,-1.559925811558689901e+01,-9.838179208580076818e+01,-9.233497462103534303e+01,-7.194663642393808800e+01,-7.592835960490830871e+01,-1.129706069618641209e+02,-4.622981662330129637e+01
-3.988696989248161628e+01,-6.096211375941767585e+01,-2.107514386692368902e+01,4.919729139481212599e+01,-8.205236370798832723e+00,-3.986034078124917812e+01,-1.227173133452130003e+02,-1.116580236729805904e+02,-9.133261125309348927e+01,-9.546216045453883225e+01,-1.328067333622786919e+02,-5.131591314009662597e+01
-7.409960939894335752e+01,-8.525208210035016521e+01,-1.115247270139410318e+01,7.844804301799506163e+01,-3.271113374138843710e+01,-4.948216704558243606e+01,-1.226538773303565364e+02,-1.212233901645144698e+02,-9.120014645573826328e+01,-1.003573895446750868e+02,-1.380046623827392409e+02,-2.712359401057608466e+01
-4.975246779530446872e+01,-3.146289738315717699e+01,1.828957041216030888e+01,3.937933397489465648e+01,-3.281684233586152999e+01,-5.424745168511950766e+00,-9.819148348510042013e+01,-9.663107616941829292e+01,-6.666924235647715591e+01,-7.597404924866688702e+01,-1.139243965291427116e+02,-2.245286123219347374e+01
3.315445784351346248e+01,4.672543356357526534e+01,1.357097572007512554e+01,-3.872883381447729079e+01,1.099764425965494752e+01,2.887191663530948915e+01,-6.885013107926174314e+01,-7.204108359345266877e+01,-4.701989915345919258e+01,-4.671214180246401781e+01,-8.984593811083450987e+01,-1.778371675157089271e+01
4.286117048733150625e+01,4.195290394651326693e+01,-9.082665408045897948e-01,-4.363645846914268134e+01,2.065233248546225653e+01,1.924781016443816029e+01,-6.878981923199566495e+01,-7.673341419224600202e+01,-5.665211693759626144e+01,-6.137166932503055250e+01,-9.504928925959977448e+01,-8.236162478908852336e+00
-3.039232690054309671e+01,-2.138049304868652456e+01,9.011833851870534318e+00,2.465646190612740440e+01,-1.849277121483843445e+01,-5.017072799521478998e+00,-8.825054693660993621e+01,-9.606806959060497775e+01,-7.604589570797628539e+01,-8.579263383638055984e+01,-1.295344519472263300e+02,-3.773020029573878276e+01
-5.484603137274110907e+01,-3.591476426419956880e+01,1.893126710855584705e+01,4.414992922941242171e+01,-3.811766039988636123e+01,-9.762740494030012428e+00,-8.331231306731402242e+01,-1.007650512837576855e+02,-8.568123536778412586e+01,-1.004550372518433505e+02,-1.396214279797715108e+02,-5.258583204983835913e+01
-4.025993995876816456e+01,-2.604991653407189744e+01,1.421002342471092206e+01,3.436394540460606351e+01,-2.846232860900589756e+01,-4.749201159661286198e+00,-8.813511637218093142e+01,-9.570436062528318644e+01,-8.555813570738514784e+01,-9.559888135968863310e+01,-1.448302189732873160e+02,-8.696305953303115643e+01
-4.031404962879354059e+01,-4.546595665253568797e+01,-5.151907023727133605e+00,4.409851228675629642e+01,-1.880676934112726073e+01,-2.413646302700165336e+01,-1.027189554651568955e+02,-1.052859988174140682e+02,-9.519659638930806977e+01,-1.102641678020772957e+02,-1.695608263295426923e+02,-5.302188445185350929e+01
8.431642709761426602e+00,-3.072289136181316138e+01,-3.915453407155924026e+01,9.913631673073922457e+00,2.500902394299986753e+01,-3.376453430687549684e+01,-1.075438288171184951e+02,-1.099899669060891938e+02,-9.995661693845413254e+01,-1.200508980631398828e+02,-1.796532512150705543e+02,-9.716230840772595911e+01
1.813714018901491087e+01,-1.598072735037723291e+01,-3.411786753937647632e+01,1.293053134301684892e-01,2.490505779625028637e+01,-2.387342317771725675e+01,-1.074897347440763866e+02,-1.146962657745763750e+02,-9.983819673372995851e+01,-1.200790734570534113e+02,-1.799874945397363319e+02,-7.298433288710523925e+01
-2.583755404876328043e+01,-4.515947125786575356e+01,-1.932191720908647170e+01,3.426553492798390721e+01,-4.478661242285443933e+00,-3.350313777579444263e+01,-1.074366713982290520e+02,-1.096448961361411989e+02,-9.484133500205494727e+01,-1.201086951170662047e+02,-1.754435569410084383e+02,-5.368795925686200121e+01
-6.981243685439429214e+01,-4.993912967571606032e+01,1.987330717869457075e+01,5.864232220959636521e+01,-4.362212664999103851e+01,-1.385368619351058328e+01,-8.298463676709653214e+01,-9.483585853194080073e+01,-7.520603081949640512e+01,-9.085976399307718054e+01,-1.660214387801097473e+02,-5.879318877154098288e+01
-6.986750503747887819e+01,-4.983970913543875270e+01,2.002779590205679838e+01,5.861966880152619552e+01,-4.372533189251654306e+01,-1.372507648436184979e+01,-8.781362868215967410e+01,-9.466915333747063244e+01,-7.997228312095911917e+01,-9.577228086157228404e+01,-1.663611401471981708e+02,-1.510002259202682140e+01
-5.528275532590599539e+01,-6.438121609451314953e+01,-9.098460768590157954e+00,5.859757627084522369e+01,-2.430827039129235700e+01,-3.799731666931850071e+01,-9.752364483034980935e+01,-1.042647807718598756e+02,-9.938009070987212112e+01,-1.250862463379356626e+02,-1.813426608670198164e+02,-8.852846180230608297e+01
-1.141818435435833479e+01,-4.964365692751042758e+01,-3.822547257313480884e+01,2.929604609849126362e+01,1.462906448328670805e+01,-4.275041473369785194e+01,-9.747468275698059870e+01,-1.041027409005081097e+02,-9.438945225646469339e+01,-1.300016608730712164e+02,-1.865660004964778977e+02,-9.851850740531078543e+01
-1.147378868561746579e+01,-4.466703792339487933e+01,-3.319324923775985070e+01,2.927507968833431562e+01,9.646679389679736261e+00,-3.774437861357786517e+01,-1.071867398596460816e+02,-1.039430336310631162e+02,-9.916036628795848173e+01,-1.251585247357614037e+02,-1.917911583141181779e+02,-4.995016029736829921e+01
-2.128956484090073076e+01,-4.457136529042964668e+01,-2.328180044951109551e+01,3.413467838384792685e+01,-2.154190122112638051e-01,-3.273921618601220018e+01,-1.022598133806912415e+02,-9.890565871034601741e+01,-9.417283118208496262e+01,-1.300768379993016879e+02,-1.872581333096108551e+02,-4.042342125785991414e+01
-3.598550931308470524e+01,-4.935664516298229643e+01,-1.337113584987950787e+01,4.387484347669833085e+01,-1.007722407038903967e+01,-3.261493526970217260e+01,-1.022139004025331417e+02,-9.875061572555078726e+01,-9.406684516630471649e+01,-1.252366005381158374e+02,-1.924869241784592475e+02,-5.041829096930059961e+01
-5.556161855758637813e+01,-5.414288360262475663e+01,1.418734954979981921e+00,5.361557620202263763e+01,-2.969872913109474410e+01,-2.761154362994532363e+01,-9.240899784773398551e+01,-8.883790410829253403e+01,-7.932240632082717013e+01,-1.106378120295974838e+02,-1.830775293209834729e+02,-8.969477003313778596e+01
-3.121788897468755053e+01,-2.477008659685473901e+01,6.447802377851427735e+00,2.919687772942786452e+01,-2.003992752201159178e+01,-7.969048985008932107e+00,-7.772510248525246368e+01,-7.892752314150426685e+01,-7.433951258638158777e+01,-1.106804719611785686e+02,-1.687899468455798910e+02,-4.113285896177934120e+01
-2.639431690136617803e+01,-2.467826006589702814e+01,1.716056835488036114e+00,2.429874916302091847e+01,-1.526081254022253830e+01,-1.272745901678017333e+01,-8.256221094192240173e+01,-8.853947196870657876e+01,-7.911816177483785850e+01,-1.107245796402477680e+02,-1.740241745776818902e+02,-7.065255816871791694e+01
-3.621089861738848725e+01,-4.410740987568286187e+01,-7.896511258275253908e+00,3.892119155142043496e+01,-1.536137745110188213e+01,-2.724678138093975122e+01,-8.252031971297915902e+01,-9.327374959947130151e+01,-8.389835157554654188e+01,-1.254101341988377101e+02,-1.841402100682425669e+02,-9.041386796720905750e+01
-6.066763034949917710e+01,-5.865754183989452031e+01,2.010088509624022635e+00,5.842420589158786015e+01,-3.010161549148555693e+01,-2.712702370667600960e+01,-7.759942516640475674e+01,-8.337035490775053859e+01,-7.892007955454614887e+01,-1.108171345907038727e+02,-1.796180505936576424e+02,-9.553678855991500996e+01
-8.512450825802321219e+01,-4.880866170679679783e+01,3.631584655124603245e+01,6.816779311602006430e+01,-5.948151986381009237e+01,-7.488193590217917972e+00,-7.267952354489463573e+01,-7.834928663067783816e+01,-7.882334315234180622e+01,-1.206255795874508863e+02,-1.750976931514081514e+02,-6.650132002141560861e+01
-8.030152841015694776e+01,-5.848077514606671912e+01,2.182075326411008831e+01,6.815195407233517244e+01,-4.982108371741718145e+01,-1.713029859549702394e+01,-7.264061097019961721e+01,-7.333054337402066380e+01,-8.360813968405852847e+01,-1.255554677770331011e+02,-1.803391344595025316e+02,-7.650746229497742945e+01
-7.059868675801291715e+01,-8.279388774085118996e+01,-1.219520098281814313e+01,7.789668950761127064e+01,-3.040030013128491859e+01,-4.629334625766030342e+01,-8.724268344651562757e+01,-8.783412361905536159e+01,-9.815446633769049356e+01,-1.353667975594007089e+02,-2.051023709554405059e+02,-7.675521520167995959e+01
-5.113597913520342786e+01,-9.734800497364282990e+01,-4.621202583841905209e+01,7.300200005937902858e+01,-1.219162117200276896e+00,-7.057734407136975108e+01,-9.696573685626617589e+01,-9.746002572183262203e+01,-1.078223201652174765e+02,-1.500595671359642154e+02,-2.249873987837661957e+02,-8.188457844478556069e+01
-5.607340126911078926e+01,-1.119031322021720740e+02,-5.582973093304067902e+01,8.274788624994137365e+01,-1.317662643372461417e+00,-8.510229946103684995e+01,-1.018097669478019469e+02,-1.070882479024567147e+02,-1.174916980675393461e+02,-1.696337744933520071e+02,-2.351142137712578517e+02,-1.211755516026984054e+02
-7.565094879268225725e+01,-1.166992746343466933e+02,-4.104832584164361009e+01,9.737434848021644029e+01,-1.605579465852243004e+01,-8.010821974915411658e+01,-9.201476932309898871e+01,-9.231878823198447037e+01,-1.076425967798834904e+02,-1.501694173847889147e+02,-2.306028114016407358e+02,-1.165481341100364006e+02
-4.154861724576652193e+01,-6.781643731459865876e+01,-2.626782006881106923e+01,5.344138702358007009e+01,-6.393551100285876032e+00,-4.583511214078731655e+01,-6.758073943591335819e+01,-7.755164462882763132e+01,-9.291501286624142608e+01,-1.258264933219308261e+02,-2.114531868031309330e+02,-1.265623252334722082e+02
-6.112640207502398226e+01,-7.749462513209586234e+01,-1.636822305705052827e+01,6.806900202968967051e+01,-2.113092489173273236e+01,-4.572298373183443232e+01,-6.754767260419504282e+01,-8.230681486798658852e+01,-9.282894272616310616e+01,-1.356449995857108775e+02,-2.167053347521390663e+02,-1.072981240566030579e+02
-5.142429863906602350e+01,-8.717384284131186689e+01,-3.574954420222427132e+01,6.805719353781458381e+01,-6.587908936936596405e+00,-6.025184152821654493e+01,-7.727556402677872427e+01,-9.194429659170657487e+01,-9.762438260582652561e+01,-1.454649332414624610e+02,-2.219592496826761590e+02,-1.221955294781287904e+02
-6.124230221121691642e+01,-8.221409507166079322e+01,-2.097179286042201340e+01,7.292596148351049123e+01,-2.132449611892147345e+01,-5.038169245508449023e+01,-8.212440878961506030e+01,-8.694408731062280538e+01,-9.754132860292551754e+01,-1.455262911407293132e+02,-2.272149256886252999e+02,-1.370945402124035013e+02
-1.149804079718180105e+02,-1.065353863223940039e+02,8.445021649446076140e+00,1.119553056915074478e+02,-6.046067929380629380e+01,-5.027254335556580145e+01,-7.233420186154243936e+01,-8.194618440014870941e+01,-9.745977666537561390e+01,-1.407090699145171868e+02,-2.227123565188808527e+02,-1.129551547838058809e+02
-1.296786109819921080e+02,-9.181772095274193646e+01,3.786089002927248259e+01,1.119452258562373004e+02,-8.495645126878773112e+01,-2.576440099331338729e+01,-5.766493809290942352e+01,-6.231058510303989095e+01,-7.785972259144331531e+01,-1.261332659717718485e+02,-2.084515355748613388e+02,-7.417737152728574301e+01
-1.199769061445735758e+02,-8.686110317490631871e+01,3.311580296968976000e+01,1.021757215180823977e+02,-7.529180476633804631e+01,-2.565727206455965614e+01,-5.275661222465375033e+01,-6.219728654098673104e+01,-7.778116203700378151e+01,-1.310788755064120039e+02,-2.039524559165765822e+02,-9.884118860792344208e+01
-1.200352881773968932e+02,-8.678553705560729270e+01,3.324975112181232362e+01,1.021667920515071444e+02,-7.538673239696021255e+01,-2.555116321349657937e+01,-5.760921890165813153e+01,-5.720628572905544473e+01,-7.770409052707421438e+01,-1.262658945062609206e+02,-2.092151102734450774e+02,-8.446660404333842109e+01
-7.617375161225537283e+01,-9.159102652190713911e+01,-1.541727490962880154e+01,8.263843666887568418e+01,-3.156122665571167829e+01,-5.472608103909783495e+01,-6.734275267944944687e+01,-7.173757958442108418e+01,-8.738850346259138746e+01,-1.312143187576978676e+02,-2.242394910494048474e+02,-1.140136157094578095e+02
-8.111229081382455774e+01,-8.175757536370480238e+01,-6.452845498570951577e-01,8.263065443187460346e+01,-4.141527993964497512e+01,-3.998203208767832706e+01,-6.243720802138924597e+01,-6.187116492654069333e+01,-7.755439611958114199e+01,-1.215241438469797117e+02,-2.148655903180386701e+02,-1.240422213305954244e+02
-9.581090000286387465e+01,-8.168518723527826353e+01,1.412571276760893113e+01,8.750344426340991788e+01,-5.614888456905164560e+01,-3.499902284212464565e+01,-5.753257929396142600e+01,-6.176703847447043216e+01,-7.260176364784990710e+01,-1.215953651625112855e+02,-2.103733998162708758e+02,-1.096724184628734236e+02
-1.007495732642066173e+02,-7.185386566015256449e+01,2.889570760407752559e+01,8.749680495332368935e+01,-6.600203279206934326e+01,-2.025705972253253506e+01,-3.798886076918883958e+01,-5.190519684845757808e+01,-6.765060107537870238e+01,-1.216679778990145167e+02,-2.058829109456668220e+02,-1.197042044828703524e+02
-1.056883045381119928e+02,-8.642361403691697319e+01,1.926469050121868776e+01,9.725073515650367995e+01,-6.121471677312727877e+01,-3.479614909635012054e+01,-4.284604663560499915e+01,-6.156563657533189371e+01,-6.758090331604201140e+01,-1.168619770612205571e+02,-2.111541147784836596e+02,-3.213757659385481702e+01
-9.598708761019119606e+01,-8.147443564076222344e+01,1.451265196945285219e+01,8.748523338814010231e+01,-5.642692858281833423e+01,-3.469629728471650054e+01,-5.258413100922446404e+01,-7.122835409056558831e+01,-7.239266517494770881e+01,-1.218173574661333589e+02,-2.164270020603907483e+02,-8.012531861014331014e+00
-1.009259161084635537e+02,-8.140633362073779722e+01,1.951958248774985805e+01,9.236029802088300755e+01,-6.139866019680395937e+01,-2.971751056071755670e+01,-4.768310793547976800e+01,-7.113334573272433659e+01,-7.720588134854568807e+01,-1.365341137424390467e+02,-2.119415632079584952e+02,-1.254090672580901042e+02
-4.242478351039548556e+01,-8.621931099748302074e+01,-4.379452748706317777e+01,6.307592728770287493e+01,1.950096496248349354e+00,-6.377979514383726212e+01,-7.206297138307589023e+01,-9.544060773268546427e+01,-9.666054641855451735e+01,-1.512522403223069887e+02,-2.416177883028171607e+02,-1.354471796678992064e+02
-3.272368316705225055e+01,-6.663337066380852036e+01,-3.390968749673167082e+01,4.843211929473323352e+01,1.859349670564604651e+00,-4.904315718965357007e+01,-5.740371523451582902e+01,-8.071013620095121155e+01,-7.707665484160754943e+01,-1.415717314265344839e+02,-2.176156670824852881e+02,-1.259668658286630745e+02
-7.670260833580616122e+01,-2.752851539383248536e+01,4.917409294199852354e+01,5.330887204266869617e+01,-6.167089246606602160e+01,9.612397216664239963e+00,-2.810533328137827880e+01,-4.646192712161371219e+01,-4.773420094602721520e+01,-9.773258105776925220e+01,-1.887351889364244357e+02,-6.280812229459405671e+01
-1.332155219735804152e+01,-2.258474786827779113e+01,-9.263195670894702971e+00,1.914618344768695479e+01,-3.200621677378752139e+00,-1.469313795595728322e+01,-4.760781923337956556e+01,-6.589597636295380312e+01,-6.719317894475939568e+01,-1.173347830141716202e+02,-2.037763429187295401e+02,-9.725094544734385238e+01
-7.682050785802189807e+01,-5.668207070309475881e+01,2.013843715495240971e+01,6.794405135571460619e+01,-4.720982968613306952e+01,-1.947976871126505216e+01,-3.783116673218789572e+01,-5.605227969421632395e+01,-5.249358295210851111e+01,-1.125383309102042517e+02,-2.090591177650944701e+02,-5.849533152598823449e+01
-9.151946834440438749e+01,-6.638048645526495761e+01,2.513898188916492771e+01,7.770247354195606704e+01,-5.705850816541646964e+01,-1.938750103390777824e+01,-3.781536935667949706e+01,-6.085083279239907483e+01,-5.731540699096296265e+01,-1.126232181850604235e+02,-2.045835018959899116e+02,-6.854127664655152330e+01
-5.253842658477360317e+01,-4.679999760673646136e+01,5.738428978062859898e+00,4.842144769425918582e+01,-2.786664872852269781e+01,-1.929634088292644023e+01,-4.268042062344008514e+01,-6.565163124143261086e+01,-5.725864499478952752e+01,-1.175894381015833261e+02,-1.952294834131831749e+02,-5.087768201024189807e-01
