-2.909362041083967299e+01,-2.923879618807896819e+01,-1.451757768082700129e-01,2.979384610546978962e+01,-1.433550499465274086e+01,-1.570052277116045580e+01,1.362984147444499428e+01,7.117621899832071719e+00,-4.556248914272609696e+00,-2.210578632430080503e+01,-3.255516928803119470e+01,-2.765927664160033927e+01
-4.187707413110621246e+01,-4.745000911080061456e+01,-5.572934979261345845e+00,4.582277506996530292e+01,-1.817980747651734319e+01,-2.819950915049420814e+01,7.886670158683529941e+00,1.208081483138523815e+00,-1.332210367667639694e+01,-3.299784861264597424e+01,-3.936594180515905350e+01,-4.633430116215760108e+01
-5.526076948012737233e+01,-6.491105195141189199e+01,-9.650282470849321115e+00,6.169114673958280548e+01,-2.295197700450027511e+01,-3.947346725208107898e+01,2.638680504769745028e+00,-3.528316042892706950e+00,-2.098241594551162947e+01,-4.300034535120100543e+01,-4.573879517435157993e+01,-6.022053937040303850e+01
-6.800608635139437297e+01,-7.994175704406205796e+01,-1.193567069223024646e+01,7.587751291856982050e+01,-2.827175172328273689e+01,-4.838945069523706621e+01,-1.510116266375719718e+00,-6.095042667546322512e+00,-2.636054160078372632e+01,-5.080437498725703449e+01,-5.095718898603509928e+01,-6.682242320398714241e+01
-7.719225280582674031e+01,-9.025641202377306627e+01,-1.306415921750658882e+01,8.577033569299501892e+01,-3.241471787592252696e+01,-5.417051041999390293e+01,-3.992588122023358554e+00,-5.938646994676858526e+00,-2.852019494420513368e+01,-5.500949260305071675e+01,-5.415468121370647481e+01,-6.638579992172903133e+01
-8.007038344120999795e+01,-9.397137124756702065e+01,-1.390098780591494432e+01,8.907575284165829999e+01,-3.360193853113684526e+01,-5.641607103794194700e+01,-4.382934430004900683e+00,-3.047890549995994292e+00,-2.703670585022779349e+01,-5.475572018178111477e+01,-5.463216629849327433e+01,-6.140578408144805422e+01
-7.565202065737155124e+01,-9.030081242946542375e+01,-1.464879177164945823e+01,8.492115182476035784e+01,-3.122967451627402724e+01,-5.494456086906269121e+01,-2.404418213844971675e+00,2.214276600875901835e+00,-2.201143861944197511e+01,-4.995168795088045499e+01,-5.202873367086285583e+01,-5.543798742704473881e+01
-6.462247485496709487e+01,-7.978998959142097647e+01,-1.516751473600714739e+01,7.394214554493275671e+01,-2.570089376399359793e+01,-5.003533102884767203e+01,1.874935759629090759e+00,9.205911930179967229e+00,-1.421197995689201043e+01,-4.126282722096448907e+01,-4.649809827539510820e+01,-5.106629487817617985e+01
-4.877211360482935731e+01,-6.451142684569070695e+01,-1.573931324041229551e+01,5.811038621467380239e+01,-1.777016857635717173e+01,-4.287108481567957341e+01,7.800568817100132613e+00,1.693859812657768771e+01,-5.176618293751219291e+00,-3.018694563860782765e+01,-3.899408541539218476e+01,-4.844496246510328064e+01
-3.139867752070045981e+01,-4.819756153110426311e+01,-1.679888400995246656e+01,4.099426440667296134e+01,-8.834881881454519359e+00,-3.547128928191758490e+01,1.421579550628286270e+01,2.418039311471926567e+01,3.201196045420960701e+00,-1.886714512571199620e+01,-3.126109418300816500e+01,-4.587229797558934052e+01
-1.705954161453694340e+01,-3.532563716631758410e+01,-1.826609555132712615e+01,2.717619509269194822e+01,-1.129445424495707284e+00,-2.995999937350657660e+01,1.990842012974368558e+01,2.989354403249088321e+01,9.401480663701116569e+00,-9.337607720311513759e+00,-2.520917555338376914e+01,-4.198286994746287348e+01
-9.466084925165729302e+00,-2.904278231238605557e+01,-1.957669738676475646e+01,2.014158734846643029e+01,3.290328741658955725e+00,-2.758283762290603747e+01,2.413890873235713386e+01,3.375666514287415509e+01,1.288527808302857025e+01,-2.730516983533645359e+00,-2.199459852766266366e+01,-3.727590811602654952e+01
-9.495910702840495432e+00,-2.951176260556591657e+01,-2.001585190226790090e+01,2.042664092741285842e+01,3.662331170857146212e+00,-2.804059547218776416e+01,2.695751113273636790e+01,3.641344277882959091e+01,1.438258467931990126e+01,1.052444809007618831e+00,-2.139617964146699691e+01,-3.346369390322825410e+01
-1.497817830420741458e+01,-3.394239247580490826e+01,-1.896421417113809227e+01,2.551398341518703106e+01,7.356767483606889702e-01,-2.961659545509025904e+01,2.914259486118578124e+01,3.925288324360963799e+01,1.555741461195710151e+01,3.257406911934987104e+00,-2.188877847172854629e+01,-3.159801139545440662e+01
-2.226900948852842532e+01,-3.847816599532127668e+01,-1.620915650633160610e+01,3.157023213758922253e+01,-3.861471842910670915e+00,-3.027858139858511777e+01,3.163933144703738165e+01,4.359961704056794929e+01,1.795727100653185104e+01,5.569128289998504400e+00,-2.160517742404178776e+01,-3.113093424425515465e+01
-2.894024041331557484e+01,-4.108596250698707308e+01,-1.214572209320840379e+01,3.628393203691663160e+01,-8.833327240928971591e+00,-2.924085702101329076e+01,3.474439576009268649e+01,4.961339463149466411e+01,2.190772299687593971e+01,8.826080819112201326e+00,-1.968245919726515325e+01,-3.087619008268078602e+01
-3.543156738763560298e+01,-4.303352600287290386e+01,-7.601958614772357237e+00,4.049695237883789645e+01,-1.407272195125291070e+01,-2.762600384253520502e+01,3.782706209326191527e+01,5.597540627381027889e+01,2.630891459844570690e+01,1.236382065908787453e+01,-1.674817918175311959e+01,-3.049534647296278322e+01
-4.348659617435543367e+01,-4.698059202580924421e+01,-3.493995850987020368e+00,4.645982346187178536e+01,-2.002528392869670171e+01,-2.730217221813654049e+01,3.999615770756355460e+01,6.096998248010614674e+01,2.963572558003399138e+01,1.484008889389863128e+01,-1.403689983191507906e+01,-3.073984987912443501e+01
-5.260103714490141158e+01,-5.343882393705801803e+01,-8.377867916880192833e-01,5.422112951860558638e+01,-2.591965583663524342e+01,-2.906299438218130504e+01,4.094278060159453503e+01,6.386620983429492071e+01,3.122020850752459609e+01,1.558435539470724862e+01,-1.219238822053316973e+01,-3.246001199418145688e+01
-5.865174609831180419e+01,-5.947895610528664179e+01,-8.272100065045351336e-01,6.028715010338545710e+01,-2.905551869376154528e+01,-3.202198889846846441e+01,4.106456438331146330e+01,6.527996889430635008e+01,3.161652213310685866e+01,1.512376517545364507e+01,-1.094636055569652910e+01,-3.548144893121050814e+01
-5.687825443357791499e+01,-6.097545373219764997e+01,-4.097199298147812918e+00,6.025897915161948504e+01,-2.667681286145784014e+01,-3.440797105792512411e+01,4.103282614654987270e+01,6.660569842392973783e+01,3.202066228458613040e+01,1.475427057637029193e+01,-9.602846144477577894e+00,-3.842464416371045388e+01
-4.625781030276024097e+01,-5.612073476087312685e+01,-9.862924457639492104e+00,5.274307814234557412e+01,-1.862658436828620268e+01,-3.490894817260493710e+01,4.130101237685161664e+01,6.911991056131236633e+01,3.342172908429964906e+01,1.561048633896867877e+01,-7.669947171629583060e+00,-4.004246624696134660e+01
-3.057809608156829739e+01,-4.688205671855787671e+01,-1.630396063651484440e+01,4.056890660603701093e+01,-7.707126509155978411e+00,-3.358948766302909661e+01,4.184841817126548591e+01,7.327592460971848709e+01,3.607689670316056407e+01,1.790534538020595789e+01,-5.187295962321479159e+00,-4.066573994671507819e+01
-1.544078058394411279e+01,-3.723207734046458484e+01,-2.179129675604448835e+01,2.842886191870828938e+01,2.465548584571918056e+00,-3.161546418395867875e+01,4.235908043599128092e+01,7.873226044340327689e+01,3.961605548106659569e+01,2.107650548208641794e+01,-2.540853819128385815e+00,-4.165829612941067950e+01
-4.615851959817804939e+00,-3.032784725723880470e+01,-2.571199529694382591e+01,1.971041035612419279e+01,9.711542241006497989e+00,-3.025156873916252209e+01,4.260588522723900695e+01,8.489072266132049549e+01,4.346839531118287425e+01,2.456000672355234116e+01,-1.267048989234287326e-02,-4.371017027385151721e+01
1.332675968653155296e+00,-2.705973879172715257e+01,-2.839241475990196051e+01,1.511795848502945461e+01,1.391457332837968330e+01,-3.009161450471605903e+01,4.264872701542865485e+01,9.125080327351034271e+01,4.720152730527813389e+01,2.827903489381319346e+01,2.494383846927558324e+00,-4.627243709135812111e+01
4.293721476801410475e+00,-2.624582083641837826e+01,-3.053954231274025588e+01,1.314272107776932863e+01,1.635993605793347072e+01,-3.086761659458199603e+01,4.274233733573645821e+01,9.748757809593919887e+01,5.064100358956675052e+01,3.252433094952868942e+01,5.342564338917041411e+00,-4.831385509605670592e+01
6.956647694230137624e+00,-2.584269747259941141e+01,-3.279934516634881447e+01,1.147331140132589944e+01,1.869805345762833682e+01,-3.183899445843427856e+01,4.311575028401261278e+01,1.034869495396482364e+02,5.377110035768833995e+01,3.748143872318672010e+01,8.794528147496608383e+00,-4.904619467447628267e+01
1.094460564444635686e+01,-2.434208734514040273e+01,-3.528669298910482155e+01,8.587662463379110989e+00,2.178890816568729605e+01,-3.229242443546439034e+01,4.394027525818951574e+01,1.093680814627306290e+02,5.669221412348507272e+01,4.291460954720835730e+01,1.283557265444404472e+01,-4.815096404306054723e+01
1.585864272745931380e+01,-2.126602432975032642e+01,-3.712466705672651557e+01,4.464553465796830878e+00,2.501005164603382624e+01,-3.158123588562148143e+01,4.551909267873848108e+01,1.155146734338947709e+02,5.981522795732890785e+01,4.838785084545542503e+01,1.740568754149964903e+01,-4.587183588611222262e+01
2.046024752244438716e+01,-1.653642750167309927e+01,-3.699667502363324445e+01,-2.851181187954198171e-01,2.712648135199321331e+01,-2.904714840939299236e+01,4.827538594948172346e+01,1.225695615854888985e+02,6.390049899035777514e+01,5.373705320988290879e+01,2.268804765303069360e+01,-4.290497303749973668e+01
2.500771897953272571e+01,-9.810634688701860284e+00,-3.481835366774931373e+01,-5.919238507049581877e+00,2.826388698409070699e+01,-2.449168848998937875e+01,5.232522168382921279e+01,1.311209502910005824e+02,6.957242966235241965e+01,5.914062421630067234e+01,2.890982370241822963e+01,-4.027669285617928807e+01
3.156249355063044248e+01,-8.842217143804209645e-01,-3.244671526452462729e+01,-1.357668247635127479e+01,3.038097869538103879e+01,-1.875624259867834454e+01,5.711410981142575594e+01,1.412062936048855590e+02,7.679263767721299416e+01,6.472922666681776604e+01,3.583761829886230288e+01,-3.921354888197786437e+01
4.120466145393136514e+01,9.268480624335182938e+00,-3.193618082910901279e+01,-2.337048300046093985e+01,3.501189163456304243e+01,-1.338225593856422968e+01,6.165563665638837421e+01,1.522622252376578444e+02,8.496479082076002953e+01,7.035310206766384056e+01,4.277745825723959427e+01,-4.017729867731984683e+01
5.177142048665813689e+01,1.835070634568726788e+01,-3.342071414048275813e+01,-3.311674710716374648e+01,4.112453641168233531e+01,-9.603813272699897041e+00,6.509622924085604723e+01,1.635065218298941545e+02,9.339178536253741925e+01,7.572142825947747724e+01,4.909603586600849923e+01,-4.185576951662486778e+01
5.922805805107631016e+01,2.388251644860927314e+01,-3.534554160197793493e+01,-3.955755380686527900e+01,4.594656851113493445e+01,-7.886599945314618054e+00,6.694600701474260518e+01,1.741250406738939773e+02,1.014636232689008182e+02,8.055602455069698919e+01,5.448863558640769611e+01,-4.177468616909531818e+01
6.079422354740633949e+01,2.448524799124091800e+01,-3.630897555567523227e+01,-4.061387507483191683e+01,4.740276908729402550e+01,-8.207918483499282658e+00,6.700405171877790167e+01,1.833368021623026891e+02,1.086294298022000504e+02,8.462228183724589314e+01,5.881672634824204238e+01,-3.793189979948706991e+01
5.649027411919204411e+01,2.036704983326707463e+01,-3.612322428543357233e+01,-3.644136822318080959e+01,4.536872996399439728e+01,-1.033523750379597672e+01,6.539773376680521721e+01,1.907435397092282017e+02,1.144791713658670744e+02,8.770319402815553644e+01,6.196295810792084069e+01,-2.989473228103554447e+01
4.830540396541576342e+01,1.295190360460817125e+01,-3.535350036031490362e+01,-2.879236979913070016e+01,4.105635032169630705e+01,-1.377960026396491422e+01,6.272371943225837043e+01,1.966986559147423748e+02,1.189766701030266631e+02,8.972268008906897307e+01,6.398192368106300876e+01,-1.894453814464957375e+01
3.833930557713026133e+01,4.180199205443683397e+00,-3.415910637119255711e+01,-1.968973558810015234e+01,3.557179438182065923e+01,-1.759348081217348181e+01,6.006033699222481914e+01,2.023009510592649463e+02,1.226562492491200516e+02,9.115083908253318157e+01,6.542581913433959073e+01,-7.533699080940364112e+00
2.786421634340442921e+01,-4.038978796315129571e+00,-3.190319513922420924e+01,-1.069323078995615006e+01,2.925564239700925029e+01,-2.048077303188741283e+01,5.862493964899567089e+01,2.089132785174296316e+02,1.264424967298767228e+02,9.301671454375450310e+01,6.728080833224451851e+01,1.751962314092294859e+00
1.817451638340176956e+01,-1.020748761868423848e+01,-2.838200400158935466e+01,-3.152980151681011201e+00,2.268162327264683498e+01,-2.161024288189275921e+01,5.906404213772118084e+01,2.173483634941752030e+02,1.310587877285673528e+02,9.604406690434443306e+01,7.022551919963891010e+01,7.520600375031755824e+00
1.128332741982651477e+01,-1.349392203136548751e+01,-2.477724945069406459e+01,1.571301023930135043e+00,1.746033811862459828e+01,-2.121032672925628049e+01,6.111692950591792339e+01,2.274909130127470860e+02,1.367294405580776697e+02,1.001063168250212101e+02,7.413623401030912419e+01,1.039155724272182901e+01
8.668448022242829509e+00,-1.373867082113965132e+01,-2.240711884288324285e+01,2.722560542286903029e+00,1.498435617826031319e+01,-1.991825192197382322e+01,6.413086247467609269e+01,2.388477187426593673e+02,1.435250184689944888e+02,1.049342631767963638e+02,7.860042184187994962e+01,1.247664449628723204e+01
1.042351386120315127e+01,-1.116599684937261827e+01,-2.158951071007517797e+01,4.037829745251272362e-01,1.543177318144376642e+01,-1.804661074263355047e+01,6.757331882550894875e+01,2.510936559707851359e+02,1.515952261527205280e+02,1.107710106231209295e+02,8.351931361380073326e+01,1.578613794105483592e+01
1.639596536046662578e+01,-6.066199655371243615e+00,-2.246216501533585230e+01,-5.147890321771014577e+00,1.875946604347020852e+01,-1.582988807941229581e+01,7.097984218564317871e+01,2.639331326131782589e+02,1.609357900911447246e+02,1.179977253135331665e+02,8.898812851284402825e+01,2.075366949965745889e+01
2.684063838497817756e+01,1.331301100996453268e+00,-2.550933728347821372e+01,-1.394185849692220813e+01,2.532860163213075921e+01,-1.361246688841856844e+01,7.394306771672827949e+01,2.769500183581930060e+02,1.712355693585288350e+02,1.266868117652308854e+02,9.506727084809413952e+01,2.651252733763864811e+01
4.160443035287790536e+01,1.084461480423998481e+01,-3.075981554813285967e+01,-2.581945837633289642e+01,3.510580558430193321e+01,-1.146479679362582793e+01,7.632499874357394276e+01,2.897485619688856104e+02,1.820040805956333259e+02,1.366656808564729033e+02,1.018513241576996649e+02,3.276066093107956334e+01
5.921862680106795551e+01,2.200685787501867807e+01,-3.721176892554264271e+01,-3.984316613399290219e+01,4.690695103236630814e+01,-9.095557684619590688e+00,7.819721148006985345e+01,3.019678469224164701e+02,1.926958458726402910e+02,1.475644174398190103e+02,1.093847041236160891e+02,4.018257166662957047e+01
7.675398147095204138e+01,3.355781967766684915e+01,-4.319616179277700496e+01,-5.397258287775264307e+01,5.849768136976341282e+01,-6.298034795903116212e+00,7.955281908147560443e+01,3.132315896090085516e+02,2.027290257250062950e+02,1.586851627859255132e+02,1.173948000163963741e+02,4.867888511183313227e+01
9.093722783327567072e+01,4.373282388625678152e+01,-4.720440394650918137e+01,-6.574616938290779444e+01,6.754054384032392022e+01,-3.212046971126135020e+00,8.030144499467408536e+01,3.233457096165420808e+02,2.116240338939947208e+02,1.691782461142259137e+02,1.254084410732931190e+02,5.661588263319855230e+01
1.001254427626659975e+02,5.152643897385836880e+01,-4.859900378829645717e+01,-7.388738068930619818e+01,7.290623918748835308e+01,-4.231683201554953255e-02,8.053189132412786932e+01,3.325379864533116461e+02,2.192985971960123379e+02,1.785563201929653587e+02,1.331744649070918456e+02,6.214091169518536617e+01
1.053826889877988293e+02,5.746018883344211048e+01,-4.792250015384413331e+01,-7.923512858115903157e+01,7.535703141872409105e+01,3.189225035046718393e+00,8.054123332882473107e+01,3.413179687765415338e+02,2.260994848727235649e+02,1.868466366571183812e+02,1.407180538730525825e+02,6.463914877629692057e+01
1.093458598639470267e+02,6.266418602195017229e+01,-4.668167384148292598e+01,-8.370845164158457408e+01,7.688324323279883288e+01,6.324841060852429031e+00,8.055023280198193447e+01,3.499640939907794177e+02,2.323917667867395096e+02,1.941480687989144940e+02,1.479965735943653158e+02,6.524774143681722194e+01
1.138720844257692875e+02,6.732759076761954020e+01,-4.654449365763453983e+01,-8.833931383952351268e+01,7.917816496984160324e+01,8.680072709395146191e+00,8.052764045581268704e+01,3.581883189167195383e+02,2.382368409486068401e+02,2.003236490414496132e+02,1.547619535470460903e+02,6.602587833119265781e+01
1.188416937784928678e+02,7.047627553262123001e+01,-4.836541824535517264e+01,-9.256687057487829406e+01,8.261939749287145673e+01,9.353054638647991581e+00,8.033564295214426920e+01,3.654572705679525484e+02,2.436302361743035192e+02,2.053888947424601383e+02,1.608806982336319891e+02,6.850148253721458502e+01
1.228383029453218427e+02,7.104281446922685461e+01,-5.179548847557727242e+01,-9.511571601383936070e+01,8.640085683381795434e+01,7.955452014555817186e+00,7.990895276727934515e+01,3.715533861332395418e+02,2.488629797262527177e+02,2.099882775654190254e+02,1.666539825277066029e+02,7.322112319481894360e+01
1.246522018925421378e+02,6.880674197988069807e+01,-5.584545991214246641e+01,-9.521946128731107706e+01,8.947334415587391732e+01,4.870227016861489844e+00,7.917252096847333576e+01,3.766375398612988761e+02,2.543785329927800944e+02,2.150665160872413253e+02,1.726730560863119308e+02,8.010575924340153620e+01
1.246414495162620142e+02,6.475896159220607728e+01,-5.988248792353573435e+01,-9.350363360229202669e+01,9.166476124086939592e+01,9.392609227509030045e-01,7.791128753744749247e+01,3.809442676286593041e+02,2.603883169657723329e+02,2.210943452646014293e+02,1.794051166816655325e+02,8.864035244606179731e+01
1.250276091236709135e+02,6.099558832438825107e+01,-6.403202079876129460e+01,-9.209204695988350409e+01,9.406832991774670916e+01,-2.854767557447751347e+00,7.589934214429720782e+01,3.846974298271632051e+02,2.668376053617859611e+02,2.279414982466307436e+02,1.870098963691474125e+02,9.783286531772196781e+01
1.287433947358985051e+02,6.001120262377322945e+01,-6.873219211160285624e+01,-9.367135276366575170e+01,9.833187944764483746e+01,-5.521433592761821885e+00,7.314578091719374697e+01,3.882686871035717786e+02,2.736101626240660494e+02,2.354326446655281302e+02,1.954752460742496112e+02,1.063336777580518202e+02
1.377062173534005467e+02,6.357261487510439935e+01,-7.413360247777286816e+01,-1.000815812893726928e+02,1.055344833214299314e+02,-6.269189169174269161e+00,6.992085516162676129e+01,3.921461195804369595e+02,2.805227112420329831e+02,2.435797705416078429e+02,2.046527870971645484e+02,1.131379890421527961e+02
1.516333032230736251e+02,7.174309131950219864e+01,-7.989021190304758591e+01,-1.112463298526255642e+02,1.154323273854837879e+02,-4.890211279717679993e+00,6.649526250811294403e+01,3.966083146740959364e+02,2.872004204718923575e+02,2.522021623076578010e+02,2.140912550732837190e+02,1.183379959755836097e+02
1.682542580696581354e+02,8.285831187673160514e+01,-8.539594619240243389e+01,-1.252213987677923797e+02,1.265937473815129977e+02,-1.931302542850431792e+00,6.290704034787190579e+01,4.014868002362283050e+02,2.931699922458157630e+02,2.607379231164308635e+02,2.231365040999052098e+02,1.230241733080904112e+02
1.848770552674793066e+02,9.470458439269373230e+01,-9.017247087426147800e+01,-1.395287227044885014e+02,1.373683299345028388e+02,1.708972567969303746e+00,5.901143793072426291e+01,4.062730033367521969e+02,2.981166480668928216e+02,2.686513566710621603e+02,2.313637329064335404e+02,1.285236126197753492e+02
1.999253145825578599e+02,1.058748513441654211e+02,-9.405046323786852724e+01,-1.526352488300836114e+02,1.468208548709232559e+02,5.395539105151810233e+00,5.466598058015624417e+01,4.104055871438984582e+02,3.020979962129353567e+02,2.758948076506716234e+02,2.388272789959019065e+02,1.356977827978661253e+02
2.132343791936940249e+02,1.160994108404668594e+02,-9.713496835270360918e+01,-1.643169705320248397e+02,1.549232143223453306e+02,8.942902384808473215e+00,4.987006445530081322e+01,4.134462645809864512e+02,3.055139094439798555e+02,2.828504918144301428e+02,2.458557791287898056e+02,1.443442088780001029e+02
2.250598564939690505e+02,1.254426454609754273e+02,-9.961721103247042208e+01,-1.747636988676146359e+02,1.619661250114949382e+02,1.230618605764147411e+01,4.479729132102281142e+01,4.150296583135636297e+02,3.086825999168615908e+02,2.897881710804097111e+02,2.526323890833685937e+02,1.526582366265239443e+02
2.348440548057718331e+02,1.333672166549516760e+02,-1.014768381502971408e+02,-1.834484251103275767e+02,1.677350990557478951e+02,1.525512355779581064e+01,3.965617050919038178e+01,4.148190782045942342e+02,3.114250200888309905e+02,2.964382519610212512e+02,2.590005803714642525e+02,1.580707772070836938e+02
2.410434693342658647e+02,1.386536059234314564e+02,-1.023898634103113210e+02,-1.889743151195713153e+02,1.713054577000757206e+02,1.734660921420496038e+01,3.456293910042613504e+01,4.127364965425781520e+02,3.132351814736447295e+02,3.022320171078422391e+02,2.646967957532621085e+02,1.596403723835746860e+02
2.420645891234548515e+02,1.401140863422362770e+02,-1.019505027806951603e+02,-1.899445164964861590e+02,1.716289671190399133e+02,1.815615980518468575e+01,2.958676219839613708e+01,4.092026729481172538e+02,3.137933869752383202e+02,3.068763611005599046e+02,2.696792963504870499e+02,1.591168063354289757e+02
2.373754433038911884e+02,1.374630768637395590e+02,-9.991236643962774622e+01,-1.860053091687695712e+02,1.682797319690442635e+02,1.764313784802401841e+01,2.474100471347697194e+01,4.049166231360920847e+02,3.131755502662094841e+02,3.104724244760583929e+02,2.741375527414375028e+02,1.594079809377289791e+02
2.282643383693338421e+02,1.317976183386698494e+02,-9.646672003013944163e+01,-1.784420333962947325e+02,1.619887128203643556e+02,1.630045990907618503e+01,1.991609176522245761e+01,4.003064407707935857e+02,3.116622194038210978e+02,3.131765095821138516e+02,2.782520314894673561e+02,1.626908195694794301e+02
2.180483930465829872e+02,1.254603631781724715e+02,-9.258802986788516876e+01,-1.701441292426521841e+02,1.549027479021013960e+02,1.487726057113717637e+01,1.504987949819452986e+01,3.952873009975055538e+02,3.094926824708661570e+02,3.149971393322446147e+02,2.820433359358673897e+02,1.695536342272629611e+02
2.111849837121491191e+02,1.213949975781657145e+02,-8.978998613345717672e+01,-1.647962619876747965e+02,1.500348931108031820e+02,1.410826970989748652e+01,1.040790868759268939e+01,3.895965826274494361e+02,3.068542792633977569e+02,3.159622228082728839e+02,2.855207716608292685e+02,1.786247289768609221e+02
2.112396474199178726e+02,1.221028891894148813e+02,-8.913675822997575438e+01,-1.653531218594712868e+02,1.497388969826626806e+02,1.468235626616485590e+01,6.621161118338634743e+00,3.832513469557492840e+02,3.040664419922266575e+02,3.164269571577549414e+02,2.889539990583888880e+02,1.869172370455491432e+02
2.189935099986871023e+02,1.284741288287733312e+02,-9.051938116938536893e+01,-1.725737751600030379e+02,1.543365494502459967e+02,1.706691008926397046e+01,4.428944548781797330e+00,3.765995568352461760e+02,3.016029185975738756e+02,3.170573782949048223e+02,2.928119471749810145e+02,1.915279630434374383e+02
2.321136992423937500e+02,1.391800514801852842e+02,-9.293364776167878460e+01,-1.846234247950694396e+02,1.620936022042506011e+02,2.109909509148612372e+01,4.171966829151455336e+00,3.698963055350787386e+02,2.997025298771487769e+02,3.182785803780540164e+02,2.972770163929900491e+02,1.915309950268455736e+02
2.465970618210824341e+02,1.511949218180130572e+02,-9.540214000253838833e+01,-1.980359377652443129e+02,1.704884248542337843e+02,2.579029800342784640e+01,5.356500899318328734e+00,3.628103172720642533e+02,2.979285081788038383e+02,3.197905289062612155e+02,3.018303373353414258e+02,1.883148985561190329e+02
2.587262907636988984e+02,1.612399064192791798e+02,-9.748638434388733742e+01,-2.093231110495258349e+02,1.775012917880962391e+02,2.976405021371822812e+01,6.938625931534063263e+00,3.545567601488894525e+02,2.953670900065743012e+02,3.208255105551560860e+02,3.054889965033078738e+02,1.842114645583422430e+02
2.660069436527987818e+02,1.672063037001571786e+02,-9.880063995210777250e+01,-2.161290051122803675e+02,1.817972754696364177e+02,3.217712995281024035e+01,8.144146461481852839e+00,3.446316993954368399e+02,2.913522076485722891e+02,3.207888185700086296e+02,3.075386076448693302e+02,1.806333885595143727e+02
2.670804832235394315e+02,1.686375597536074338e+02,-9.844292346939667482e+01,-2.174869407817834031e+02,1.823035287139889249e+02,3.323286999280635712e+01,8.783406967131510257e+00,3.331615317142468484e+02,2.858067675585708116e+02,3.194807771863672201e+02,3.078720194537588668e+02,1.774833461788959710e+02
2.617091849785767863e+02,1.661464072355988719e+02,-9.556277774244122725e+01,-2.135704341281771121e+02,1.784323637510790093e+02,3.361245170739735499e+01,8.796945366047014048e+00,3.204670827730937503e+02,2.789034973650780103e+02,3.168275644299322948e+02,3.065948319434999121e+02,1.742973831729455583e+02
2.508696342074284757e+02,1.604832452640800966e+02,-9.038638894281052671e+01,-2.052685096314083637e+02,1.706759701965465297e+02,3.352466928736397733e+01,7.869082101450802114e+00,3.065300138777001280e+02,2.706463236299609321e+02,3.126756873366406353e+02,3.035752548245345110e+02,1.711730337136337710e+02
2.361470202535944907e+02,1.521589595256485836e+02,-8.398806072740701723e+01,-1.936499751323613339e+02,1.602669993696205779e+02,3.265510783005154849e+01,5.703473528254817460e+00,2.910548762200283477e+02,2.609123672187265583e+02,3.069054032469206277e+02,2.985697251823810916e+02,1.682533354331931719e+02
2.189789702195041343e+02,1.417826146505803990e+02,-7.719635556838396440e+01,-1.797345277578028515e+02,1.482984910985097997e+02,3.089266519138070777e+01,2.501467096844419480e+00,2.739769620251972242e+02,2.497994085058954283e+02,2.995839657904783735e+02,2.916638519880120270e+02,1.650905150080825194e+02
2.007326663227792949e+02,1.303698270000160448e+02,-7.036283932222269755e+01,-1.647193504088314739e+02,1.356504374261892281e+02,2.862009537847565710e+01,-1.038832600546345741e+00,2.557213814293839960e+02,2.377105583441150145e+02,2.909793932100057532e+02,2.833882589412165771e+02,1.609960232220310559e+02
1.830003581234898604e+02,1.191633972906234362e+02,-6.383696083232511143e+01,-1.500544854397494419e+02,1.233578090271960264e+02,2.636829641789016776e+01,-4.161461087612028820e+00,2.369754299642910951e+02,2.250440959695887102e+02,2.814487602905094263e+02,2.744240666789839906e+02,1.557926568906020748e+02
1.671697518354121428e+02,1.092638876259027825e+02,-5.790586420896724462e+01,-1.370252753953894569e+02,1.123260503911186987e+02,2.458183096337729268e+01,-6.442208397335409842e+00,2.183604294814257116e+02,2.119844746189304772e+02,2.713571626057960771e+02,2.653419545510737976e+02,1.499400265692657683e+02
1.536246961819749117e+02,1.013400897708290955e+02,-5.228460641060285496e+01,-1.261866257828726390e+02,1.026423639147736253e+02,2.367965293493892176e+01,-7.756032040742281808e+00,2.003808263680406583e+02,1.987266117968387675e+02,2.612239086375194006e+02,2.566300812217994007e+02,1.439387125881452221e+02
1.417436429316090880e+02,9.553228779315631414e+01,-4.621135513790903104e+01,-1.172890959552700565e+02,9.362101364679274695e+01,2.400110405865364882e+01,-7.987620846266624497e+00,1.835051052506761380e+02,1.857250507010078024e+02,2.516778559925975571e+02,2.486876621508172036e+02,1.381064315043599322e+02
1.310631279720828104e+02,9.162093854070428733e+01,-3.944218943083410522e+01,-1.099514704036939463e+02,8.489287056223805905e+01,2.547673699855929286e+01,-6.989039873354879973e+00,1.680228529138098281e+02,1.735010903895829131e+02,2.429571569816998249e+02,2.415463548819292896e+02,1.326607811007779674e+02
1.222000751453370384e+02,8.921201806005197454e+01,-3.298805708473999942e+01,-1.042551902757049191e+02,7.723986655085123232e+01,2.740104338934283845e+01,-4.764123727391734064e+00,1.538642345474226261e+02,1.622856523738102226e+02,2.346887744833096576e+02,2.347594509809709393e+02,1.271294230114662867e+02
1.160857739048178559e+02,8.765294629271357962e+01,-2.843282761155858651e+01,-1.003467616779798846e+02,7.188881958667153071e+01,2.871852073007264750e+01,-1.527473837114049271e+00,1.407028799116732500e+02,1.519677455037071070e+02,2.263520126540561819e+02,2.277392354707720870e+02,1.202907691505074439e+02
1.124800937040513134e+02,8.594062027276667948e+01,-2.653947343073840059e+01,-9.764674333117723393e+01,6.910553518285600205e+01,2.862149252668252686e+01,2.365001943818052066e+00,1.281749186048589593e+02,1.422938054498039833e+02,2.177093761331992994e+02,2.201237866606572311e+02,1.114352435985919669e+02
1.096344378232837329e+02,8.298017535687930035e+01,-2.665426246585768766e+01,-9.477542470668932140e+01,6.773055115093114864e+01,2.693458621867268477e+01,6.484933894506568208e+00,1.160182410461920881e+02,1.330616901610192144e+02,2.087085727627064671e+02,2.118438054077841173e+02,1.012680687356225917e+02
1.051758637758100150e+02,7.798267176203509621e+01,-2.719319201322768720e+01,-9.015305407253171666e+01,6.583425078406911268e+01,2.406901390441528577e+01,1.037659342289380682e+01,1.040941722998199737e+02,1.241579815236551099e+02,1.993280517671248333e+02,2.029761981958350248e+02,9.147521095736098573e+01
9.736834809947384883e+01,7.075592083439866542e+01,-2.661242726452748641e+01,-8.277494487194620376e+01,6.180014525932483593e+01,2.070290515331220149e+01,1.361912516960250485e+01,9.225601317292753833e+01,1.153742266110417916e+02,1.895671354303495093e+02,1.935627417040639102e+02,8.371177751009108192e+01
8.605372589564957764e+01,6.188965235783041408e+01,-2.416407353727107221e+01,-7.281259470419341540e+01,5.513429352067247891e+01,1.750044817260864605e+01,1.599175225096239927e+01,8.030947691761706153e+01,1.062833242868277352e+02,1.793339033500806750e+02,1.836160885769618005e+02,7.911497545815204546e+01
7.270940016958384433e+01,5.266344165056611359e+01,-2.004595851846928056e+01,-6.162728271025971338e+01,4.657244719127807997e+01,1.497559876605208196e+01,1.764714297149843247e+01,6.825310437353084581e+01,9.647252406473423036e+01,1.685377372081730982e+02,1.732924979836926411e+02,7.801791965555054276e+01
5.960942023567004355e+01,4.453577279919441878e+01,-1.507364743592678913e+01,-5.109119596200582691e+01,3.756260479024297183e+01,1.341200613401882435e+01,1.902539572309903804e+01,5.639539661823587835e+01,8.586002985392053688e+01,1.573889956720697683e+02,1.628963578339444496e+02,7.907941786077816460e+01
4.855072677156437067e+01,3.844592628653550292e+01,-1.010480048447960044e+01,-4.258465665933726996e+01,2.939331491286960230e+01,1.283853576373902428e+01,2.048950657990391377e+01,4.508011474739758739e+01,7.472544315985170726e+01,1.462269200101217734e+02,1.526818164492969174e+02,7.924206147181948268e+01
4.008602925921110227e+01,3.441880176915452694e+01,-5.667227489506847071e+00,-3.640463678342646858e+01,2.263880560740766867e+01,1.303060775823436224e+01,2.202403937319467886e+01,3.442978102954489117e+01,6.351204384138424786e+01,1.351091000131577005e+02,1.427331531483069114e+02,7.573991502376090068e+01
3.375760721644450513e+01,3.169272442345390672e+01,-2.064882792440389636e+00,-3.194181906165551510e+01,1.732582358950645229e+01,1.349560753476952968e+01,2.329900692340481427e+01,2.439253923692721315e+01,5.262101022472786838e+01,1.239629433015765585e+02,1.330152056073775952e+02,6.818076679565758980e+01
2.859398881369330070e+01,2.914315055982781999e+01,5.491617466852189988e-01,-2.814174368015279626e+01,1.317848600274621162e+01,1.360325798559186694e+01,2.399366942951682802e+01,1.487176127073158938e+01,4.232466330016848843e+01,1.130142988869186951e+02,1.235295826461328801e+02,5.840384421907745605e+01
2.365179046494019133e+01,2.587612883446600520e+01,2.224338370077021843e+00,-2.407524704581949138e+01,9.794710552995681496e+00,1.289631455539129590e+01,2.404653536795822788e+01,5.781409140563051885e+00,3.279913921677252375e+01,1.027786130841997476e+02,1.144943623292659538e+02,4.864872887500383314e+01
1.876884200451099005e+01,2.176988008588755008e+01,3.001038081928279144e+00,-1.958773614598686663e+01,7.086924938715752020e+00,1.128043276076737023e+01,2.365929757252930798e+01,-2.937064307417231568e+00,2.414216755915273893e+01,9.366378882236696768e+01,1.063200396914821368e+02,4.006346131487043749e+01
1.457946951764193599e+01,1.748919445994768296e+01,2.909724942857975449e+00,-1.531363599058584768e+01,5.300315703898325737e+00,9.063016420931413464e+00,2.315756813558706284e+01,-1.129168402211578481e+01,1.637001089397869436e+01,8.573419317229388525e+01,9.932146379180683482e+01,3.270952901616558250e+01
1.153434520842990274e+01,1.395321906795788891e+01,2.418873860080712479e+00,-1.193458971666767532e+01,4.341145285837830770e+00,6.952590339095706007e+00,2.290289252497635530e+01,-1.918056251106093413e+01,9.509397420500778964e+00,7.888638864275998230e+01,9.352492115747034518e+01,2.637457132457350539e+01
9.110832956933778704e+00,1.163458297281632881e+01,2.523750016435756915e+00,-9.465194582133960921e+00,3.365252387789765542e+00,5.752005959296590198e+00,2.323172379219997907e+01,-2.639006724309039598e+01,3.616854679555694396e+00,7.302928507691930804e+01,8.873458770390598715e+01,2.112912019794845975e+01
6.043038313065826728e+00,1.028023489104736754e+01,4.237196578535198377e+00,-7.211115526234674000e+00,1.151434366018794009e+00,5.898536334966644645e+00,2.440577689744110401e+01,-3.263797156973605240e+01,-1.314951224360425108e+00,6.804138074816489734e+01,8.469810154950434367e+01,1.772184548289422779e+01
1.249070798167794649e+00,9.392370936519998992e+00,8.143300138906299779e+00,-4.407605772293845092e+00,-3.189607486532833214e+00,7.442524769434435861e+00,2.669894456225719992e+01,-3.751199659612038317e+01,-5.228999982788689493e+00,6.384256941255542728e+01,8.136733064470537613e+01,1.738814612601622045e+01
-5.547475265586953697e+00,8.715792107872333716e+00,1.426326737401384293e+01,-7.588549896124914262e-01,-9.805178183011062032e+00,1.025683497616256901e+01,3.035868366591263623e+01,-4.053942228864079311e+01,-7.873253995121031856e+00,6.050564363604711104e+01,7.900644232148329138e+01,2.069194836047235597e+01
-1.351587523809869396e+01,8.059441594382809271e+00,2.157531683303657033e+01,3.465804305563438881e+00,-1.771185762233782413e+01,1.372804803516835470e+01,3.510862318596847587e+01,-4.175046238269597154e+01,-9.270591670001619988e+00,5.789840820480015537e+01,7.766155949974802297e+01,2.650220103649779446e+01
-2.059694875568728278e+01,6.966532871971208962e+00,2.756348162821412728e+01,7.501471306021086249e+00,-2.454517999401114992e+01,1.632830546339485167e+01,3.975332825098268330e+01,-4.226364669061597112e+01,-1.029694302135729345e+01,5.519314770477492260e+01,7.653726308728161598e+01,3.195011256947695699e+01
-2.487881496684605764e+01,4.884059586856717594e+00,2.976287455425902806e+01,1.065554397579411372e+01,-2.804409706104921440e+01,1.646752364498402343e+01,4.281073347689679309e+01,-4.378816751338315072e+01,-1.220398302029112969e+01,5.133841179992729309e+01,7.445650007949336668e+01,3.381335445034566334e+01
-2.657473095741952562e+01,1.661758727344467390e+00,2.823648968532087977e+01,1.306244819363448428e+01,-2.828096458579199535e+01,1.405024668894903783e+01,4.367098511511471060e+01,-4.729155833463901359e+01,-1.552463559911531021e+01,4.612495342230612039e+01,7.094385676100205274e+01,3.075042314552120004e+01
-2.758621048692926081e+01,-2.328919155118299944e+00,2.525729133236843893e+01,1.547453072708202981e+01,-2.730703562262430140e+01,1.042595330247102581e+01,4.284442038275341247e+01,-5.248164245843550191e+01,-1.990152137212671946e+01,4.019020114949986322e+01,6.639778955049919773e+01,2.409471718908510596e+01
-2.925888211628431179e+01,-6.545239944375088825e+00,2.271364217246718553e+01,1.832367028457895941e+01,-2.676624274039889073e+01,6.881801578629233695e+00,4.129167928884830019e+01,-5.840219916503509978e+01,-2.473143678076457519e+01,3.413179209540162162e+01,6.144719583125029772e+01,1.627401975457979333e+01
-3.143863260779928126e+01,-1.049549491796789269e+01,2.094313769038969042e+01,2.130841385011495959e+01,-2.683643154150652066e+01,3.873795129032520101e+00,3.988744856908210323e+01,-6.403596789497416353e+01,-2.946038139078095242e+01,2.831376316400147886e+01,5.660368744618087078e+01,8.911205262678896233e+00
-3.347388989152443628e+01,-1.375762906901941918e+01,1.971626082306349659e+01,2.390471837935462673e+01,-2.716263592234437141e+01,1.485989646605820003e+00,3.926907888889162734e+01,-6.848968667126860055e+01,-3.350878419136726905e+01,2.332342616690555559e+01,5.231270399897866241e+01,2.686772927236587449e+00
-3.524153281860695586e+01,-1.603157412929962788e+01,1.920995868986580390e+01,2.593565250044068193e+01,-2.778487007819534327e+01,-5.480985571579574667e-02,3.968560754505088539e+01,-7.111441364855228642e+01,-3.641104441564183247e+01,1.985525311555286265e+01,4.897184897240116186e+01,-2.189245456524484990e+00
-3.684247831641397397e+01,-1.712374010389353174e+01,1.971873821307874408e+01,2.738381335318937460e+01,-2.885087993255469740e+01,-4.703582269533721494e-01,4.085924561026401136e+01,-7.174973976360507777e+01,-3.806974345173118479e+01,1.808314231673216810e+01,4.684206974208210283e+01,-6.302076501577792200e+00
-3.791735718577697867e+01,-1.693141008800930436e+01,2.098594709832568839e+01,2.800202537978543305e+01,-3.001096875833171751e+01,2.132729894305528395e-01,4.212901673413981740e+01,-7.084185789296331848e+01,-3.875692427477270030e+01,1.752627556751996707e+01,4.592381174609452188e+01,-1.073187136300813727e+01
-3.800251079355655293e+01,-1.573489381005734700e+01,2.226761698405687895e+01,2.765276456862114429e+01,-3.064583718836892601e+01,1.499746222912617277e+00,4.275712077215280260e+01,-6.925819630125894832e+01,-3.894690625327542222e+01,1.741902950119388649e+01,4.585226938562546906e+01,-1.583799513877291609e+01
-3.734206090622433294e+01,-1.438298840181837335e+01,2.295907250496332708e+01,2.683087039495829984e+01,-3.057006628269157034e+01,2.637682882264223760e+00,4.219362706140405805e+01,-6.795621963511537444e+01,-3.909589890287716685e+01,1.700638955689008114e+01,4.599843159663331704e+01,-2.081419805432155812e+01
-3.652571227106879093e+01,-1.365136106190316134e+01,2.287435120972279634e+01,2.616787358456287294e+01,-3.001014370045869839e+01,3.124932971292820660e+00,4.026349045123008352e+01,-6.767600417373593302e+01,-3.940816979112715046e+01,1.572609474389258288e+01,4.581663536083544841e+01,-2.424030000689196740e+01
-3.554437313051932534e+01,-1.366131866189137689e+01,2.188305446918502639e+01,2.569854590687024043e+01,-2.893948984978196748e+01,2.845577818670947057e+00,3.708527997769150630e+01,-6.880526489617072627e+01,-3.994039936138636193e+01,1.326101286316249528e+01,4.501241455516139212e+01,-2.480960705727187232e+01
-3.394939617663962395e+01,-1.420285221252728292e+01,1.974654396466943140e+01,2.512621016770310334e+01,-2.701681432649369441e+01,1.787752437094540570e+00,3.288677844644286097e+01,-7.135384891786173966e+01,-4.085605259690632352e+01,9.535597799436398958e+00,4.346913902067563384e+01,-2.194735706583453450e+01
-3.141437692221498779e+01,-1.471729048594086997e+01,1.669708643683129878e+01,2.406424375500466795e+01,-2.416438741378028965e+01,2.994427419291889603e-01,2.828655741494299036e+01,-7.472200586166738390e+01,-4.210532816605932993e+01,5.002051546700664098e+00,4.149072940067096482e+01,-1.613898367176715709e+01
-2.802733652419287935e+01,-1.400468662530826514e+01,1.402264989944192308e+01,2.199558902197213328e+01,-2.108091544254502381e+01,-4.392183200864837600e-01,2.459655231850754831e+01,-7.757581686241674390e+01,-4.299235079215074506e+01,7.919699642867943368e-01,4.008032736725396461e+01,-8.570549570624482527e+00
-2.500249145435189746e+01,-1.133394581937844237e+01,1.366854563553091140e+01,1.917666356228402336e+01,-1.940540046067993529e+01,8.888264402616483650e-01,2.313753806527326518e+01,-7.854894368441497932e+01,-4.267318908934972654e+01,-1.913039645904376584e+00,4.034069501982981620e+01,-4.098834190798537058e-01
-2.456942847876024416e+01,-7.907830941386707835e+00,1.666159753793115783e+01,1.731771091857698508e+01,-2.079492454429316339e+01,4.204377763218881903e+00,2.404099833843860168e+01,-7.740292466600371313e+01,-4.117343654296945488e+01,-2.855269094516560635e+00,4.233494140478775591e+01,7.382832886739407741e+00
-2.805454844579815799e+01,-6.257758408501358005e+00,2.179679003785459912e+01,1.831507317953364478e+01,-2.525719194503626852e+01,7.631486607647008924e+00,2.601604080933207541e+01,-7.532212364849326036e+01,-3.965633968030239487e+01,-3.010000547929769787e+00,4.479313980249556693e+01,1.390033406106675073e+01
-3.461161312158898085e+01,-8.063681032189025544e+00,2.654793208995793208e+01,2.252990379170366353e+01,-3.101260371757636491e+01,9.051900450176002977e+00,2.746793386646780633e+01,-7.386722817067725089e+01,-3.953509038601200842e+01,-3.758442203865418385e+00,4.614505067077347888e+01,1.841206442222069484e+01
-4.224552129295645386e+01,-1.296901816088825399e+01,2.927650313262635606e+01,2.874274092426043481e+01,-3.619822834586760507e+01,7.839184034808658552e+00,2.768446550163467279e+01,-7.381514405159521175e+01,-4.139070117369143276e+01,-5.750006322659783287e+00,4.567189316436434865e+01,2.028457312334008122e+01
-4.932183695287392311e+01,-1.939690287899875187e+01,2.992493407443348374e+01,3.535731295194331381e+01,-4.000857334013495858e+01,4.799822214382163388e+00,2.682606847028492680e+01,-7.512964748282595906e+01,-4.491622119953147774e+01,-8.774823548335946910e+00,4.352097922746947489e+01,1.867659754423425511e+01
-5.495817899423559538e+01,-2.601848299624392169e+01,2.893969599855010699e+01,4.133221844486371310e+01,-4.229739839082722597e+01,8.681067692508586120e-01,2.521390183549215180e+01,-7.755915197769768099e+01,-4.959157699706157985e+01,-1.254398732008954198e+01,4.004161421056998904e+01,1.303293618211845839e+01
-5.868161792947576316e+01,-3.236367958418747293e+01,2.631793834584679104e+01,4.626123016564768164e+01,-4.284557102485643298e+01,-3.699092061819221566e+00,2.297516737590191838e+01,-8.088079125736871333e+01,-5.499675751693011705e+01,-1.717910376729728128e+01,3.551354318892797579e+01,3.968262240846858191e+00
-6.016466465832369437e+01,-3.838725714266529820e+01,2.177740751621689697e+01,4.996014828320042511e+01,-4.131509161444441958e+01,-9.009450218673379140e+00,2.011238869531479168e+01,-8.478878074872933723e+01,-6.068885759736703278e+01,-2.286464705201015590e+01,3.030936099077990065e+01,-6.756462599959730753e+00
-5.922110571332176221e+01,-4.366524708674435828e+01,1.555585862713584788e+01,5.208193565668790370e+01,-3.771483010410577208e+01,-1.471382479910629293e+01,1.671471809141163334e+01,-8.875228348455571847e+01,-6.608386468671463376e+01,-2.921180342152836573e+01,2.501349792687014784e+01,-1.698602034544271078e+01
-5.575535922080948836e+01,-4.698094605416846292e+01,8.774413167199323738e+00,5.196538294012398040e+01,-3.257562457360692321e+01,-1.962838542522329632e+01,1.317444469625071513e+01,-9.199626483446758130e+01,-7.044624184077183315e+01,-3.516701541197308956e+01,2.038433739992509786e+01,-2.489260551202242056e+01
-4.982816475054072214e+01,-4.668249681441823640e+01,3.145667936680579757e+00,4.885432313282369421e+01,-2.680662036311927210e+01,-2.210327942819278491e+01,1.033369732187446921e+01,-9.358739525042361151e+01,-7.292151457198650633e+01,-3.941934573070709291e+01,1.731335288921794557e+01,-2.950072733237233535e+01
-4.217313161389390785e+01,-4.165485683158618713e+01,5.182747828655651645e-01,4.257499870242951090e+01,-2.171122700144724149e+01,-2.074387525858913151e+01,9.371104390230339476e+00,-9.262387933776290083e+01,-7.271357335897397434e+01,-4.081416206493032206e+01,1.664938033463256417e+01,-3.071130642273548261e+01
-3.465944022609200914e+01,-3.235550017406438883e+01,2.303940052585157439e+00,3.426034319151295193e+01,-1.893109962901736765e+01,-1.516096540227354517e+01,1.116684699025309513e+01,-8.869680553254923439e+01,-6.956487190926972630e+01,-3.884023300238168730e+01,1.867553750583707028e+01,-2.875250990913018612e+01
-2.988238291495841636e+01,-2.104379234473707072e+01,8.838590570778499966e+00,2.627930258599107916e+01,-1.991660142661746136e+01,-6.360059991315687888e+00,1.558498620029006787e+01,-8.236602466237022213e+01,-6.417584136638579650e+01,-3.407689144599898157e+01,2.268141294669811359e+01,-2.391068445237617723e+01
-2.971609767111080203e+01,-1.070616471353226373e+01,1.900993295813522366e+01,2.099512037592432634e+01,-2.502367570013708686e+01,3.622964730936667266e+00,2.140375193697523315e+01,-7.509469216482115428e+01,-5.805777412345427280e+01,-2.811655273906396246e+01,2.718468374626360884e+01,-1.687477141801924319e+01
-3.405178169694927703e+01,-3.583355539985930260e+00,3.046842615751946326e+01,1.944146155378589569e+01,-3.300888298503904394e+01,1.256668465394740153e+01,2.686242056647399323e+01,-6.863369009242362040e+01,-5.295040357369375528e+01,-2.293611040129071199e+01,3.061377870120304934e+01,-8.904417256514358670e+00
-4.128385627251742562e+01,-6.264237159695982271e-01,4.065743255710327020e+01,2.133344019158749560e+01,-4.177436720292807593e+01,1.882343983025277367e+01,3.039824699808583475e+01,-6.431458436994506656e+01,-5.018390522528240894e+01,-2.010134371059207581e+01,3.192528876892673040e+01,-1.510309318581883886e+00
-4.993248811549541699e+01,-1.844041850742332400e+00,4.808844626530773780e+01,2.602309034961728074e+01,-4.978965298726517830e+01,2.173025470083916844e+01,3.120174507814194342e+01,-6.265570553092520356e+01,-5.022308747334700030e+01,-2.028304667607653045e+01,3.085293854436147143e+01,3.765400105705266398e+00
-5.937567567804096313e+01,-6.718216600552842088e+00,5.265745907804188874e+01,3.300241692964376483e+01,-5.664508190859188375e+01,2.153318801188513731e+01,2.930008981057266837e+01,-6.338593770771598201e+01,-5.263001848408794814e+01,-2.334863583009533627e+01,2.774991543482747858e+01,5.600777876081101780e+00
-6.916953558480264519e+01,-1.433127228460881497e+01,5.483826330074666089e+01,4.158939496892376297e+01,-6.236437221161195765e+01,1.892643580801991376e+01,2.526717419603522430e+01,-6.573373736925159960e+01,-5.643854124965008623e+01,-2.869916138783892379e+01,2.323624202677893535e+01,3.702424875567940088e+00
-7.807177723835049221e+01,-2.322522509286499570e+01,5.484655214603741058e+01,5.039121820546825603e+01,-6.651575806115967282e+01,1.470396245118938516e+01,1.989381208262438960e+01,-6.880834842739707824e+01,-6.063138475986630027e+01,-3.541410041107964446e+01,1.795587759565092156e+01,-7.722905755527651461e-01
-8.374100315739713096e+01,-3.119828649832724210e+01,5.254271665962098581e+01,5.711459199073726722e+01,-6.797262136283229950e+01,9.807961522833958057e+00,1.403739073166962115e+01,-7.184975715020711107e+01,-6.438567489099058605e+01,-4.230374202321458910e+01,1.257373596021064444e+01,-5.863082370700727353e+00
-8.349432700706488220e+01,-3.560260466141831870e+01,4.789172234619695701e+01,5.913164146670211352e+01,-6.545001357576877865e+01,5.444247674094880196e+00,8.658817864911450002e+00,-7.417696045585736897e+01,-6.699522665611350192e+01,-4.808469132433241100e+01,7.847180895696223679e+00,-9.740175066987958985e+00
-7.614078388019382260e+01,-3.459889444992537477e+01,4.154188943081823737e+01,5.499063566654104562e+01,-5.866446735238915977e+01,2.814132289050100599e+00,4.777893231944119634e+00,-7.509573996580185451e+01,-6.780934032970311875e+01,-5.162769885487352184e+01,4.530819439643567925e+00,-1.146442104707210063e+01
-6.377465450607569153e+01,-2.858291537690954343e+01,3.519173912971548646e+01,4.597162297703332001e+01,-4.942156314170583187e+01,2.617709990743134263e+00,3.193629407163639744e+00,-7.410913894902549259e+01,-6.646084511941616313e+01,-5.222602839603731439e+01,3.160125296022298080e+00,-1.130575123532849346e+01
-5.144379659024936302e+01,-2.033373788932383519e+01,3.111005870147455710e+01,3.596818697734565973e+01,-4.127249570484781316e+01,4.689964884386068178e+00,4.085831123264677345e+00,-7.131593172420144811e+01,-6.321243136833389542e+01,-4.995930779893642892e+01,3.785852745028632782e+00,-1.029537815332868433e+01
-4.425393497642874507e+01,-1.367029934761261600e+01,3.058363562936494873e+01,2.936812344868069502e+01,-3.736428407536227780e+01,7.808568588144685130e+00,6.705247305968677907e+00,-6.758295094064075670e+01,-5.908807090830553932e+01,-4.602985347803682004e+01,5.700070518382739593e+00,-9.412622154785919903e+00
-4.436246345628615728e+01,-1.156202658377261017e+01,3.280043687306221045e+01,2.865062060436437719e+01,-3.838940277991156336e+01,1.004431643972879229e+01,9.598336239917234280e+00,-6.419209960415133764e+01,-5.550912382238875153e+01,-4.245906635239754223e+01,7.559551511023123282e+00,-8.984367249007952694e+00
-5.020479564690167251e+01,-1.465177817743973776e+01,3.555301747001046664e+01,3.332049115273151330e+01,-4.252052072923918047e+01,9.909004014631124235e+00,1.147648346520058027e+01,-6.211008480670162157e+01,-5.353030904666745471e+01,-4.090339804106349675e+01,8.108436215130154778e+00,-8.575535728321190376e+00
-5.770865529363310742e+01,-2.085577518603923508e+01,3.685288010814227277e+01,4.030937354686053453e+01,-4.680299374761126785e+01,7.444218409422082239e+00,1.202678940658649864e+01,-6.138138122383654860e+01,-5.320234818750824246e+01,-4.154492105172361960e+01,6.984604325178606743e+00,-7.296025355530765921e+00
-6.225391826674018603e+01,-2.626410404772242302e+01,3.598981421956607107e+01,4.536915552894283366e+01,-4.862930638854773235e+01,4.291496438780835199e+00,1.204933034713987894e+01,-6.104921587243185144e+01,-5.351011003008957090e+01,-4.306631492643354875e+01,4.961980355260724451e+00,-4.197121085720747047e+00
-6.073638987824238455e+01,-2.713865391843445352e+01,3.359773596035619647e+01,4.510147819428115668e+01,-4.676537721504152501e+01,2.646628154891359053e+00,1.281143356112220744e+01,-5.977983983433124848e+01,-5.303502358572410458e+01,-4.366813771212804340e+01,3.407576344374316335e+00,1.177816805311405535e+00
-5.306830038691880702e+01,-2.227138128053471888e+01,3.079691910693232870e+01,3.887059507155996130e+01,-4.167501394902815548e+01,3.639358324883973150e+00,1.488894102026299393e+01,-5.700035755423528627e+01,-5.105640568078790409e+01,-4.243220345879438327e+01,3.238258693180414483e+00,8.229863310062910386e+00
-4.213379699858528937e+01,-1.387907878237284365e+01,2.825471821676066853e+01,2.919753496456089437e+01,-3.507170102124830890e+01,6.476709940209956606e+00,1.754355377016714357e+01,-5.351116677778049535e+01,-4.813352034457540185e+01,-3.998043652080664856e+01,4.186042822134870001e+00,1.555567730860150633e+01
-3.197160083602291536e+01,-5.756770418825984947e+00,2.621483041774512301e+01,1.995214471840282755e+01,-2.906182506430033641e+01,9.401998561957221057e+00,1.948150386448225646e+01,-5.064405875072846897e+01,-4.544802419383030667e+01,-3.768842516989909797e+01,5.195674003548740316e+00,2.181711255802114380e+01
-2.548604070944777078e+01,-5.174530708362850007e-01,2.496858763915963308e+01,1.387847352983370719e+01,-2.523812854983221854e+01,1.129362071630967357e+01,2.010551369831161850e+01,-4.895414970441090219e+01,-4.365819244615656203e+01,-3.630435264800634343e+01,5.530126663185556346e+00,2.581522679559898492e+01
-2.334426367501734134e+01,1.364602305223185708e+00,2.470886598078857688e+01,1.157792764667748209e+01,-2.404322776777055992e+01,1.206109269191397715e+01,1.980058244505536535e+01,-4.809648789897055821e+01,-4.258231879517809659e+01,-3.559119717370726477e+01,5.185267324349330131e+00,2.606725843767380724e+01
-2.436016528889351918e+01,6.861981316429319744e-01,2.504636342108431890e+01,1.211100799399760142e+01,-2.471191047012610653e+01,1.194268148965798204e+01,1.918321087182911455e+01,-4.769287812415920769e+01,-4.184847564034524936e+01,-3.511345568264420791e+01,4.332789081400264308e+00,2.174750621034930376e+01
-2.674549841176750675e+01,-1.646680724258872353e+00,2.509881768805621149e+01,1.418851771481643276e+01,-2.593754297639017636e+01,1.093241776715501956e+01,1.842348254783595607e+01,-4.780220816065043721e+01,-4.151361641128203672e+01,-3.485588639769461139e+01,2.888148167395403476e+00,1.414979060809365308e+01
-2.953030853789573840e+01,-5.158164626386001927e+00,2.437214391205690589e+01,1.715409223227965896e+01,-2.702133629137224347e+01,8.948900702989307732e+00,1.740263306813034205e+01,-4.850065112380595878e+01,-4.189222604378755221e+01,-3.495845433195407992e+01,8.254099276622408610e-01,6.203198838631358569e+00
-3.318926098736805841e+01,-9.581715470610657093e+00,2.360754551730408224e+01,2.116585756764260751e+01,-2.859029084068802717e+01,6.419680630358583606e+00,1.624466150526523123e+01,-4.931867622295423104e+01,-4.295036171942858516e+01,-3.520304332588059992e+01,-1.332891128389546154e+00,6.177902094185360182e-01
-3.890961275299589062e+01,-1.445858904633169217e+01,2.445102370721036422e+01,2.659437515493716120e+01,-3.202720558116915583e+01,4.377531283500104564e+00,1.534312209734113530e+01,-4.939184758710604939e+01,-4.414223302529116921e+01,-3.509994014393100770e+01,-2.648616697783293894e+00,-1.348463028537953079e+00
-4.687286216413234285e+01,-1.919010276465246534e+01,2.768275940002552815e+01,3.318670100207094009e+01,-3.773336240149271248e+01,3.546832696727642897e+00,1.478697924887343262e+01,-4.830885490724938336e+01,-4.497646475543533739e+01,-3.451064457300337551e+01,-2.566850923468658507e+00,-2.692138860279462698e-01
-5.543495206563689237e+01,-2.332533017240871942e+01,3.210962189377336529e+01,3.983130831964505347e+01,-4.423696754403193410e+01,3.604889008092672320e+00,1.409124627492982462e+01,-4.655422879232119016e+01,-4.549297326038589517e+01,-3.382855992949134105e+01,-1.411033150750231613e+00,1.931721502119513545e+00
-6.303236735952782510e+01,-2.660428962743483083e+01,3.642807773263783844e+01,4.555348280510492742e+01,-5.011906090793183921e+01,4.063721909736291771e+00,1.293860304997671662e+01,-4.471460918917939154e+01,-4.578359679876076171e+01,-3.325638673758424346e+01,2.359944899164307941e-01,3.439578087656538941e+00
-7.000364222323968022e+01,-2.887406979430832621e+01,4.112957242947594239e+01,5.038597370413857135e+01,-5.584103963248760039e+01,5.246750024296643389e+00,1.178249805626548863e+01,-4.270601963044074267e+01,-4.548917000077089057e+01,-3.245135397616593309e+01,2.233709242405019779e+00,3.322429832352839618e+00
-7.681992268872404850e+01,-3.013039401477784551e+01,4.668952867449060307e+01,5.452863278345077447e+01,-6.190812278074055541e+01,7.382402865757276444e+00,1.108282602543230233e+01,-4.039543145697096094e+01,-4.443985204611276174e+01,-3.136235966401661557e+01,4.405986753469871786e+00,9.612702328869062729e-01
-8.173693876385409851e+01,-3.055444824601064369e+01,5.118249051838768082e+01,5.720948971535928251e+01,-6.649421893817223861e+01,9.428169927703532238e+00,1.040995456237431327e+01,-3.845682480727550256e+01,-4.337277531898691052e+01,-3.087280111569435803e+01,5.880917252491798308e+00,-3.831149950441992136e+00
-8.191883925921908371e+01,-3.048135417440464323e+01,5.143748508535846042e+01,5.719180627826087715e+01,-6.659176621932925855e+01,9.641786647651580111e+00,8.825696055140479501e+00,-3.801944384444697533e+01,-4.349366623792092668e+01,-3.222369185752694420e+01,5.568697673315451624e+00,-9.933216215110270753e+00
-7.642462463142391016e+01,-3.037901380014629638e+01,4.604561083182131398e+01,5.422680912803399877e+01,-6.102042363799910873e+01,7.062580953018217755e+00,5.866320699408251294e+00,-3.967154210327726815e+01,-4.548777428852701377e+01,-3.595263358818257160e+01,3.168956530310381936e+00,-1.515248857004108274e+01
-6.729781891035705144e+01,-3.062757027554021505e+01,3.667024863536013868e+01,4.953184832785441216e+01,-5.164018728337138242e+01,2.299656830782129013e+00,1.977370100247030971e+00,-4.297607431143836010e+01,-4.898648608980860786e+01,-4.129262100623503073e+01,-4.895818871491011137e-01,-1.732590317897788523e+01
-5.795109628743600894e+01,-3.113507616100569564e+01,2.681602012697318571e+01,4.483916995045279208e+01,-4.192608819559782063e+01,-2.858624868132141117e+00,-1.804391578151961051e+00,-4.675977083194069195e+01,-5.282213891828695296e+01,-4.647387034568612307e+01,-3.970095221826102971e+00,-1.537408591389893608e+01
-5.113441843042121349e+01,-3.134038675026842924e+01,1.979403168069518415e+01,4.134943688810161433e+01,-3.491656267539098479e+01,-6.463946623252949664e+00,-4.434591960943897959e+00,-4.971348601931249789e+01,-5.576976211147495377e+01,-4.974171517145458665e+01,-5.997568763971407257e+00,-1.008645787264216054e+01
-4.826930155259816502e+01,-3.073712662583569255e+01,1.753217492730430038e+01,3.957747261082101176e+01,-3.229938299955959025e+01,-7.276094939212032209e+00,-5.270442275274477950e+00,-5.091099401785717760e+01,-5.711093432882793763e+01,-5.032202658325569189e+01,-5.992199865532737313e+00,-3.587242567833795359e+00
-4.957290634634324533e+01,-2.945290403567172532e+01,2.012000231121261962e+01,3.966460828634190960e+01,-3.427271074129063066e+01,-5.282934441376934132e+00,-4.355940725168161443e+00,-5.020400919816449914e+01,-5.682237221724941634e+01,-4.873316286401795594e+01,-4.292821211846136187e+00,2.226906642770896116e+00
-5.422831596272561683e+01,-2.828764480636234069e+01,2.594067115690350889e+01,4.153569189699780395e+01,-3.966598297240504678e+01,-1.666453472578021566e+00,-2.438541027039086373e+00,-4.824875526494324873e+01,-5.550651319300636999e+01,-4.625994110838286133e+01,-1.927329545066243544e+00,6.227821253914331834e+00
-6.065171731153036916e+01,-2.789898000597315075e+01,3.275273730609649903e+01,4.470484337142134024e+01,-4.655734004523280589e+01,2.117324440739891234e+00,-3.556193789284614049e-01,-4.592217076360401506e+01,-5.390037347342052954e+01,-4.393404046510416094e+01,1.267629312063878189e-01,7.589499204295032442e+00
-6.664374527218377864e+01,-2.786132056283780756e+01,3.878242470988428892e+01,4.787277661046643829e+01,-5.287662494359270937e+01,5.355359871123734905e+00,1.602187419714843575e+00,-4.371992064652480536e+01,-5.228908804382104591e+01,-4.192711447128930047e+01,1.584925708099404140e+00,5.756082831898941876e+00
-6.971955970762991228e+01,-2.678893641160405537e+01,4.293062329656327591e+01,4.907573651084193500e+01,-5.671288784922229098e+01,8.144364349523756985e+00,3.589244768689449749e+00,-4.172628913057115341e+01,-5.049280245845105242e+01,-3.978326409079269865e+01,2.840886286204960420e+00,1.036995579016208202e+00
-6.845482410203000256e+01,-2.355763971193639961e+01,4.489718439063022259e+01,4.695519093278318223e+01,-5.712067764075212040e+01,1.085774691367987010e+01,5.764584615144956459e+00,-3.988918850405785577e+01,-4.829299096203996555e+01,-3.702925586396600011e+01,4.513615228915049293e+00,-5.227909393070501842e+00
-6.375754606594239249e+01,-1.852069905604207634e+01,4.523684701043624301e+01,4.206962845459104727e+01,-5.483020970016345785e+01,1.359227029935853714e+01,7.991814266342040618e+00,-3.836061268545046943e+01,-4.587260629352937968e+01,-3.369169452266276465e+01,6.849220749056781798e+00,-1.179804116824038829e+01
-5.806364806245469623e+01,-1.366325339277586970e+01,4.440039467021417607e+01,3.662441106243820599e+01,-5.136036557645135048e+01,1.562114921015931301e+01,9.657835379800253861e+00,-3.780836274617049497e+01,-4.407013498065995094e+01,-3.053470543642371027e+01,9.214670780981528253e+00,-1.867725660420006051e+01
-5.354453593848877091e+01,-1.147453980490900527e+01,4.206999613411463201e+01,3.300880497132517633e+01,-4.773329681036494065e+01,1.557328531355973666e+01,9.922727074690611104e+00,-3.913394126693588504e+01,-4.401697909587459634e+01,-2.874467745069150126e+01,1.032876206431359556e+01,-2.638276049881721619e+01
-5.161632634999930502e+01,-1.330617637461957159e+01,3.831014997591415749e+01,3.268820987025748792e+01,-4.474041656057790561e+01,1.278497512320418750e+01,8.501750959519670303e+00,-4.252436884965418074e+01,-4.617276488401584800e+01,-2.902840534155112451e+01,9.314647751999544312e+00,-3.443946366596096453e+01
-5.305940438947514792e+01,-1.847878072716118680e+01,3.458062366284795530e+01,3.578521092004397275e+01,-4.351262356532708964e+01,8.284605406477988154e+00,6.094794248751588484e+00,-4.697676300122797244e+01,-4.979435557187868255e+01,-3.094561838231287609e+01,6.498277924074055356e+00,-4.143036739631698140e+01
-5.735559619555979083e+01,-2.476690866807873803e+01,3.258868752801456736e+01,4.097976699593485250e+01,-4.464740385174923176e+01,4.034894867002303265e+00,3.865329990044414465e+00,-5.098431070646412167e+01,-5.347377983186767381e+01,-3.325498370265449921e+01,3.158811784666063271e+00,-4.619856593688776769e+01
-6.222700109760531717e+01,-2.956103249334809036e+01,3.266596860479020137e+01,4.583063049353798135e+01,-4.715786457247064334e+01,1.558008724395429256e+00,2.642564536720375834e+00,-5.350506055778725312e+01,-5.603028114663702297e+01,-3.477913917704752578e+01,6.704309534957930694e-01,-4.833349066844304787e+01
-6.477734228694879448e+01,-3.089476408601652224e+01,3.388257820146461086e+01,4.784118118393249119e+01,-4.910047692305051470e+01,1.434083514300544593e+00,2.608358962048944907e+00,-5.432572647991260339e+01,-5.695943788738058089e+01,-3.493628557435727799e+01,-2.030873661270833352e-01,-4.768286240683892885e+01
-6.365706786370568437e+01,-2.843733196645716887e+01,3.521973589778009739e+01,4.609539427871326467e+01,-4.927161171312917531e+01,3.326097442979834451e+00,3.381898364754930331e+00,-5.399404844694463890e+01,-5.652260046547664274e+01,-3.390500489589597777e+01,3.676816608310087275e-01,-4.419236585270991924e+01
-6.000699561261417614e+01,-2.389872937296989619e+01,3.610826624017501985e+01,4.201659225344378257e+01,-4.795709081962333897e+01,6.054665890707153331e+00,4.247744783869840113e+00,-5.352394593503513676e+01,-5.561720290954892221e+01,-3.250770505314982728e+01,1.430427738232018520e+00,-3.845032218411024161e+01
-5.578562031818465528e+01,-1.973775085811562846e+01,3.604786946059886787e+01,3.788199988888865022e+01,-4.589726568550112518e+01,8.117058447842373070e+00,4.496172924273538207e+00,-5.384563261711304705e+01,-5.528397425892590888e+01,-3.168006218784170258e+01,1.902719051731908806e+00,-3.163938313659472357e+01
-5.150264073859962366e+01,-1.723756256246601026e+01,3.426507817666253430e+01,3.463641430934394805e+01,-4.297532162346850271e+01,8.484271834823839953e+00,3.745352462036911412e+00,-5.537091658665667637e+01,-5.611497469482007716e+01,-3.192264930363788267e+01,1.162731154386020371e+00,-2.472325631877473739e+01
-4.613243117848545438e+01,-1.600055324712634786e+01,3.013187793188710017e+01,3.153243199428484189e+01,-3.837567349564252339e+01,7.034159467005705935e+00,2.126688593576082198e+00,-5.792672525649803106e+01,-5.801490572999163220e+01,-3.316784753041483924e+01,-8.205255622964644502e-01,-1.812801064060495904e+01
-3.861960349560122552e+01,-1.477097570071209454e+01,2.384862779541619560e+01,2.732433497090286068e+01,-3.166834730693389233e+01,4.490528708296118943e+00,2.809163571569874840e-01,-6.089882056418619527e+01,-6.038097733124989475e+01,-3.487726020837649799e+01,-3.561277641343373546e+00,-1.209037701183996383e+01
-2.895276521009584414e+01,-1.239661788290142042e+01,1.655614732772056286e+01,2.136396921853583208e+01,-2.338811302093414923e+01,1.998604764307822190e+00,-9.844429193825474655e-01,-6.355235208174691763e+01,-6.254325967890460447e+01,-3.630503795844067128e+01,-6.287083155391673728e+00,-7.090330480679760683e+00
-1.838731497600170073e+01,-8.576321385212947845e+00,9.810993591313970086e+00,1.413635271008264205e+01,-1.488244675100989767e+01,4.811399623699648687e-01,-1.268784664195356182e+00,-6.546696328980024759e+01,-6.419936024906391481e+01,-3.699240967053354012e+01,-8.412329682232005723e+00,-3.872342644653673283e+00
-9.413216146695091879e+00,-4.299955819980803895e+00,5.113260327238567271e+00,7.457801041829267064e+00,-8.090240493667584687e+00,2.141676413790755684e-01,-8.199884657155138701e-01,-6.669656138564155867e+01,-6.546182268983898211e+01,-3.702814448603981390e+01,-9.822531092782973872e+00,-2.857557826314956806e+00
-5.372653108739447347e+00,-1.513007484000908454e+00,3.859645625261846735e+00,4.053938931073796326e+00,-5.361575610263320080e+00,9.711276886977593392e-01,-1.654480278350525246e-01,-6.746425291940458635e+01,-6.645185938877887111e+01,-3.671037153656395446e+01,-1.067009077651465176e+01,-3.886857594706468966e+00
-9.133487551618539868e+00,-1.973859276258141504e+00,7.159628275882694126e+00,6.248205375324731747e+00,-8.712072889283881238e+00,2.447234508277907672e+00,4.242983741324544145e-01,-6.778826724052585462e+01,-6.693415946831902374e+01,-3.605960948731960514e+01,-1.103696485896180768e+01,-6.673778846581554625e+00
-2.129206760975178980e+01,-6.145691147623596251e+00,1.514637646264944237e+01,1.451157010215082366e+01,-1.856702576860951481e+01,4.453583214594859285e+00,1.105173472146037561e+00,-6.747578897340686410e+01,-6.645576088066563614e+01,-3.484114163709986656e+01,-1.083816011979785188e+01,-1.085099824649064537e+01
-3.929361092831356927e+01,-1.298718842449022581e+01,2.630642250434353002e+01,2.699662403263561927e+01,-3.295046457589342737e+01,6.709632988929596920e+00,2.128032170273002510e+00,-6.645576103211327279e+01,-6.484363533111590527e+01,-3.309916054066960811e+01,-1.004260294987381030e+01,-1.554643008635477308e+01
-5.830100304258054678e+01,-2.080223514476318769e+01,3.749876789833647450e+01,4.043664844559035032e+01,-4.789933319500448050e+01,8.443311958732298450e+00,3.290220144192720131e+00,-6.516171463240586093e+01,-6.260988142423537539e+01,-3.154896899242794461e+01,-9.028441236955181637e+00,-1.971591297726364544e+01
-7.329587258689035423e+01,-2.835373078556361648e+01,4.494214180184477669e+01,5.170813063381825003e+01,-5.901264344328229328e+01,8.359818986805914065e+00,3.830386322203101379e+00,-6.457621400791870769e+01,-6.088962832089567456e+01,-3.126816455390110150e+01,-8.603437233136919104e+00,-2.317364793320217586e+01
-8.086837230024849532e+01,-3.474815248119458033e+01,4.612021981957087036e+01,5.862549600598384103e+01,-6.331833865013832963e+01,5.675076351031750121e+00,3.206893752237439887e+00,-6.553922636476005437e+01,-6.064479307011824005e+01,-3.278628455413395670e+01,-9.352059532367423600e+00,-2.670080401001953163e+01
-7.968021725239641739e+01,-3.821496503258629218e+01,4.146525222032601476e+01,5.959287121488383576e+01,-6.036155306658107378e+01,1.536089206375315985e+00,1.992183583530578783e+00,-6.778255297889339204e+01,-6.166899490178069243e+01,-3.537713087511697552e+01,-1.082274188097213141e+01,-3.076729638589061366e+01
-7.043929859447534625e+01,-3.647703663845101829e+01,3.396226195653913038e+01,5.383397625284158750e+01,-5.200332633476126887e+01,-1.400022274799217925e+00,1.549099339278829479e+00,-7.001296781955755932e+01,-6.270645358939199099e+01,-3.749590545035206901e+01,-1.172288907376366218e+01,-3.444872957807338310e+01
-5.614939264337454006e+01,-2.918051675319067328e+01,2.696887589069748969e+01,4.275139046085047312e+01,-4.144144100261092944e+01,-1.270292763129621916e+00,2.696642151447194546e+00,-7.112675031124165059e+01,-6.273913276162838315e+01,-3.806705100502085770e+01,-1.117217102415493457e+01,-3.591452676993410620e+01
-4.130190642322226324e+01,-1.877157780899062089e+01,2.253032861474396142e+01,2.992289134975083087e+01,-3.192595952426386319e+01,1.729367275013011129e+00,5.030141013035267505e+00,-7.100787475669284277e+01,-6.181509706933717041e+01,-3.712336956153261980e+01,-9.476107518774195881e+00,-3.400009954334897344e+01
-2.969059000152219596e+01,-8.534245570522157820e+00,2.115634443151095212e+01,1.895777009273336944e+01,-2.556057676168224191e+01,6.206503403239064909e+00,7.530316266389056601e+00,-7.023504002492452969e+01,-6.063283187388233841e+01,-3.531822892730348684e+01,-7.638042931666022994e+00,-2.906232281097094372e+01
-2.316987449859261261e+01,-8.035963012583615672e-01,2.236627819784368754e+01,1.193733914957837428e+01,-2.300607175245970382e+01,1.070508921996556673e+01,9.384708138402803712e+00,-6.952387209183855532e+01,-5.981403777959486945e+01,-3.332478168989827338e+01,-6.533428226073564993e+00,-2.231139267765252399e+01
-2.207833859570398261e+01,3.182307541679358920e+00,2.526064613789124991e+01,9.558886316467830824e+00,-2.397975477759029772e+01,1.407512422645120154e+01,1.020220529479138882e+01,-6.943920448293567915e+01,-5.966135076497918988e+01,-3.168687828256739536e+01,-6.558126622909386860e+00,-1.513656354734978571e+01
-2.562158721055104138e+01,3.196069805784940598e+00,2.881765701684235026e+01,1.142862509349264144e+01,-2.756737594181237583e+01,1.565358511641780304e+01,9.908595806191952349e+00,-7.025770058399604068e+01,-6.027550610707027090e+01,-3.080679249246013995e+01,-7.662903531182891470e+00,-9.482591873637808533e+00
-3.196991697748329031e+01,1.672567202249691243e-01,3.213717369821308267e+01,1.612155893795734585e+01,-3.240457018070554795e+01,1.550994318675213890e+01,8.692709442851093371e+00,-7.191924497296072616e+01,-6.162394850986179051e+01,-3.084393553108183639e+01,-9.476303299137381231e+00,-7.473436422464013518e+00
-3.905025660781355157e+01,-4.194294553328693276e+00,3.485596205498814015e+01,2.180140146029312476e+01,-3.727941006601203355e+01,1.442887929952503256e+01,7.028038717506564836e+00,-7.402427040607268793e+01,-6.339755427924324493e+01,-3.157861272558053045e+01,-1.138343363947204345e+01,-9.418048766510915826e+00
-4.552399904775916184e+01,-8.259716536069774406e+00,3.726428251219115850e+01,2.708216251356696702e+01,-4.166573156261780753e+01,1.346270838587281382e+01,5.605984206476764875e+00,-7.588340503882666610e+01,-6.498052798636859961e+01,-3.246932984281427537e+01,-1.269531962938605574e+01,-1.299165296391046631e+01
-5.096099324636325179e+01,-1.114723517106665618e+01,3.981375807579688342e+01,3.136198062360201888e+01,-4.558570720260316733e+01,1.331381530885388287e+01,5.018267546212770824e+00,-7.679442709303960157e+01,-6.576968600931604669e+01,-3.302282469933218323e+01,-1.299136592814712188e+01,-1.527429575712671550e+01
-5.537199511940256258e+01,-1.284013611661914567e+01,4.253185900328225699e+01,3.462832913709897298e+01,-4.908883750812386637e+01,1.398824806319125358e+01,5.381997411441009405e+00,-7.650115486810321386e+01,-6.556835081083659134e+01,-3.313783338911965615e+01,-1.237491217733184357e+01,-1.527538577023052824e+01
-5.843154674613806066e+01,-1.374414136762365679e+01,4.468740537901181398e+01,3.687263693849098445e+01,-5.166719279758732597e+01,1.485831140132137129e+01,6.241684206400361035e+00,-7.542755843920416226e+01,-6.476838500202003956e+01,-3.309353761844555919e+01,-1.146124491367217857e+01,-1.430709909770894228e+01
-5.886763116784342031e+01,-1.406670394830275228e+01,4.480092722003661265e+01,3.749213710190763749e+01,-5.194065208474788875e+01,1.498758515675998915e+01,6.829540989763565939e+00,-7.444974688305079269e+01,-6.421189041136807418e+01,-3.333345969982531187e+01,-1.114995757788981123e+01,-1.450813688982476890e+01
-5.537895821645656724e+01,-1.382196580013440368e+01,4.155699241681661249e+01,3.578004703785085638e+01,-4.858758308666650549e+01,1.363163263620977261e+01,6.529722295382400787e+00,-7.440364118336245269e+01,-6.474805184557050097e+01,-3.428534645811694759e+01,-1.219360436878945464e+01,-1.739423331649627968e+01
-4.855844660332499529e+01,-1.338773541452098925e+01,3.517071118929695217e+01,3.219441242902789213e+01,-4.202067470969313234e+01,1.070112378728878966e+01,5.187339838669045022e+00,-7.565653075627643886e+01,-6.678177892426933226e+01,-3.624510832491617407e+01,-1.476204555604140367e+01,-2.310692509145505369e+01
-4.090125193714277430e+01,-1.347671849711098524e+01,2.742453344052324482e+01,2.834745699846715894e+01,-3.440617468469974938e+01,6.788465560241146335e+00,3.060643538984614498e+00,-7.797886958299861249e+01,-7.010508049811231501e+01,-3.929553708296140258e+01,-1.836016147466171944e+01,-3.025472583321132802e+01
-3.480236453027236365e+01,-1.441675524640412043e+01,2.038560928435819974e+01,2.563539788413016751e+01,-2.798383752628109988e+01,2.836542802646514261e+00,6.879947989257551022e-01,-8.070914421675004746e+01,-7.397524784451742619e+01,-4.323009693226836703e+01,-2.206482008239783354e+01,-3.671552881252711842e+01
-3.150208862057914772e+01,-1.580947154797906862e+01,1.569261707308853460e+01,2.452368842266405125e+01,-2.415969984838967122e+01,-9.096274200960298428e-02,-1.141895351656490920e+00,-8.298245922953388742e+01,-7.731274630702523609e+01,-4.743887513019758728e+01,-2.482700476209102902e+01,-4.091473188572848585e+01
-3.174235491482383864e+01,-1.693487205771618420e+01,1.480748285759458227e+01,2.503544804473677488e+01,-2.396679759091918172e+01,-9.266336423976139214e-01,-1.517439475526895176e+00,-8.391905891486015889e+01,-7.897330828849597140e+01,-5.082874414506288474e+01,-2.575800294232198340e+01,-4.236707887068862988e+01
-3.588246386658784814e+01,-1.727664343997054175e+01,1.860582042710267814e+01,2.705348610123995812e+01,-2.795673404661959793e+01,9.433121932114554298e-01,1.444506588018696913e-01,-8.299297623372818578e+01,-7.823136398768178879e+01,-5.224792899203367824e+01,-2.452370232133242922e+01,-4.130989690291011840e+01
-4.243474638633436768e+01,-1.662950624611294614e+01,2.580524014070520522e+01,2.969665834980617447e+01,-3.472259964212506844e+01,4.916998405647854398e+00,3.470490117879918124e+00,-8.055136840883697857e+01,-7.541108190337526196e+01,-5.149588211759747480e+01,-2.180337232816445336e+01,-3.832581455922980496e+01
-4.791930114579587041e+01,-1.503663703060314738e+01,3.288266411567487779e+01,3.127822649647479381e+01,-4.079928108998998226e+01,9.213768448598427696e+00,7.077782777912054790e+00,-7.775640687797758233e+01,-7.187908638644930193e+01,-4.969225961693639704e+01,-1.914651799962531697e+01,-3.440798518423694929e+01
-4.967078975574636956e+01,-1.290382479996962317e+01,3.676696495625721184e+01,3.075195408562629495e+01,-4.340259457000026799e+01,1.213107639646712776e+01,9.427879249050166166e+00,-7.576171405975331652e+01,-6.914413264094332590e+01,-4.838038950016565565e+01,-1.805905181966785378e+01,-3.086238014980628463e+01
-4.797075632609493567e+01,-1.096457199353064027e+01,3.700618433304303068e+01,2.869874551642862670e+01,-4.252507725176003106e+01,1.311616049115833427e+01,9.705233496976587659e+00,-7.506798104615970146e+01,-6.804334798654892325e+01,-4.851335593911083777e+01,-1.926236302237688136e+01,-2.881691682702223289e+01
-4.524014034506201654e+01,-9.970569806033143578e+00,3.526957053950584253e+01,2.673466833153995736e+01,-4.021495159513970918e+01,1.269251567579409823e+01,7.987419231712451939e+00,-7.556106024207760186e+01,-6.862573600334469859e+01,-5.017568799834805304e+01,-2.260863610832087289e+01,-2.866376023795643846e+01
-4.438243121565967186e+01,-1.049775776857893206e+01,3.388467344755595434e+01,2.659098407736888348e+01,-3.903004983918024351e+01,1.180941302564677819e+01,4.994827236326377928e+00,-7.678145188890610484e+01,-7.041076063452553058e+01,-5.283351649636015424e+01,-2.729855403176463469e+01,-2.958029922302085524e+01
-4.772962814164978340e+01,-1.283016887001809714e+01,3.489945927210516174e+01,2.953724822892352719e+01,-4.112071249421634178e+01,1.135852385614724902e+01,1.840570855393404592e+00,-7.805019188963022714e+01,-7.260366307514655659e+01,-5.569039882318850232e+01,-3.211969400621164539e+01,-2.988174995482728491e+01
-5.613203914720048004e+01,-1.671086108907587331e+01,3.942117805859637514e+01,3.581416921357165251e+01,-4.747335105182666126e+01,1.195400312477887184e+01,-3.400825805207092767e-01,-7.861547690092756113e+01,-7.426322173765800017e+01,-5.788275736150090722e+01,-3.578285569833914792e+01,-2.851070072667724631e+01
-6.799001692492976190e+01,-2.116013609450173760e+01,4.682988083089814779e+01,4.409662466622047106e+01,-5.701379981446088152e+01,1.369333459596135505e+01,-9.241254176639355222e-01,-7.802347621205169048e+01,-7.464995658693358394e+01,-5.866531739146312674e+01,-3.746974393905068723e+01,-2.599710935315130200e+01
-7.913058033973427996e+01,-2.458402023307385420e+01,5.454656010712896119e+01,5.150505161178173807e+01,-6.641012953805748964e+01,1.603223154372603076e+01,-4.109851381128248882e-02,-7.641604799215998867e+01,-7.360780355057262625e+01,-5.780331912504599501e+01,-3.722918195467257618e+01,-2.364959454688188600e+01
-8.431905812851637450e+01,-2.525176519467671099e+01,5.906729293430663574e+01,5.455329314660555440e+01,-7.130509042384576901e+01,1.806168307081088997e+01,1.583596064226072242e+00,-7.445304365413517189e+01,-7.161222147552568629e+01,-5.585305005129300326e+01,-3.583886263567755037e+01,-2.216598475156927961e+01
-7.985097227389310603e+01,-2.202192827228025607e+01,5.782904400207826967e+01,5.076357070051370357e+01,-6.851367628875868832e+01,1.906642984843509581e+01,2.973631834663482465e+00,-7.292040459332112334e+01,-6.939773046086281738e+01,-5.384264488972687701e+01,-3.425386060499198493e+01,-2.139321067354392270e+01
-6.585726663999086838e+01,-1.498559835198530621e+01,5.087166828846945066e+01,4.018408634047309391e+01,-5.805155981629980033e+01,1.902975213400311105e+01,3.386010336038872026e+00,-7.218439081580712013e+01,-6.744275554696008612e+01,-5.254730798201901365e+01,-3.301643621412846841e+01,-2.090644073535371916e+01
-4.683118541988844896e+01,-5.727780027547018094e+00,4.110340539280379346e+01,2.586613431803043639e+01,-4.360653182640074732e+01,1.863638046596490838e+01,2.526357701411500845e+00,-7.192945675300960318e+01,-6.577287345188591416e+01,-5.207593933705075528e+01,-3.208690659125795008e+01,-2.016757272093511588e+01
-2.945881212218876044e+01,3.135657784982774032e+00,3.259446990763235164e+01,1.255514754991535931e+01,-3.059521757842036038e+01,1.865541118687039912e+01,2.448448862277667892e-01,-7.157756967975807072e+01,-6.427053366951705016e+01,-5.207257291197115023e+01,-3.121867697735137170e+01,-1.879411454768651524e+01
-1.887585558661630358e+01,9.200047046881872248e+00,2.807590263395740138e+01,4.127358407212168068e+00,-2.297493427037499814e+01,1.930078376281486641e+01,-3.666657921409965937e+00,-7.093598832653295005e+01,-6.309980481693540355e+01,-5.218930586456133369e+01,-3.037994330815413235e+01,-1.716797213615567230e+01
-1.651657826165607901e+01,1.140729972328171549e+01,2.792387798539538935e+01,1.891568694583852350e+00,-2.165035207862081990e+01,2.024849805661489555e+01,-9.138457734969684054e+00,-7.026391567163489071e+01,-6.264041939910782020e+01,-5.231156894302979765e+01,-2.970826126202256035e+01,-1.609652767099121462e+01
-2.103540104864114824e+01,1.002961138540282526e+01,3.106501243449990923e+01,5.044947012626530558e+00,-2.541443885779273515e+01,2.105538002572988177e+01,-1.556953652744240557e+01,-6.986624491557715544e+01,-6.307571947543013380e+01,-5.245771816845091706e+01,-2.924154498892613674e+01,-1.584118490659707135e+01
-3.003488716544434567e+01,5.863127950546259015e+00,3.589801511644485998e+01,1.194779512121704457e+01,-3.226921768372306332e+01,2.125936905896768891e+01,-2.225343844595696652e+01,-6.994742987780635701e+01,-6.433427312371509288e+01,-5.271273962660255563e+01,-2.902437406401450914e+01,-1.580747274114322387e+01
-4.070081558569843594e+01,-2.090306345935640242e-01,4.049178495155741331e+01,2.068788347243605585e+01,-3.985422395745574420e+01,2.032416761432244101e+01,-2.890449472229377292e+01,-7.074364661213243721e+01,-6.630610714525745664e+01,-5.326628472568557982e+01,-2.940612884850891717e+01,-1.502236250347680624e+01
-5.024327930673941012e+01,-7.221894661460422249e+00,4.302138464572975352e+01,2.932289393304928993e+01,-4.590998999363276312e+01,1.787556578993921264e+01,-3.557263872451816411e+01,-7.247078987665804561e+01,-6.883597295413530048e+01,-5.436544156457688359e+01,-3.092664154348765848e+01,-1.318005100873035040e+01
-5.693342493737830523e+01,-1.439141033978337170e+01,4.254201459804382068e+01,3.652939075829072380e+01,-4.915139099280140300e+01,1.391603332953069483e+01,-4.225757402209665514e+01,-7.513635935780975217e+01,-7.166605612327060726e+01,-5.622833881672215739e+01,-3.387570729383270418e+01,-1.140832486755230590e+01
-6.096279666212256387e+01,-2.151274177830245904e+01,3.945005488426695450e+01,4.224986490963759422e+01,-4.986889697980312519e+01,8.780197791708033606e+00,-4.870872004491377538e+01,-7.847509537783017208e+01,-7.451999768810716773e+01,-5.889927820160398397e+01,-3.801980777045000792e+01,-1.161491180728825512e+01
-6.393736784672331908e+01,-2.854469391992893534e+01,3.539267392723905203e+01,4.725748436588833812e+01,-4.961015121541630180e+01,3.263063310656590943e+00,-5.434817487966530791e+01,-8.190450759200408015e+01,-7.703343220042442852e+01,-6.192260272729955517e+01,-4.258156015703011832e+01,-1.493118025108384472e+01
-6.696777571102593640e+01,-3.451063754275590867e+01,3.245713816871240454e+01,5.165422036287382213e+01,-4.985851965372551575e+01,-1.181422273429685754e+00,-5.830797776457121984e+01,-8.449098052982814977e+01,-7.863013132677058081e+01,-6.424765180132982323e+01,-4.637619940368043103e+01,-2.086168583455408410e+01
-6.946279121456778682e+01,-3.756311011561609092e+01,3.189968109939172791e+01,5.427972859520089344e+01,-5.086709880906303738e+01,-3.028599802142983410e+00,-5.983693184026733292e+01,-8.532453490932351770e+01,-7.878496227774775207e+01,-6.486332999098824814e+01,-4.829918955014291981e+01,-2.778295772952772325e+01
-7.008586986257294882e+01,-3.664413084694073319e+01,3.344173901606990285e+01,5.397472290041071119e+01,-5.183493720237810010e+01,-1.853981579689361947e+00,-5.893689977262963708e+01,-8.424195155423502968e+01,-7.752639786115378229e+01,-6.370887814348846945e+01,-4.804469276715138903e+01,-3.391094236119028693e+01
-6.828032483583207579e+01,-3.266684318031792600e+01,3.561348165594954907e+01,5.091140534251292848e+01,-5.184038740411150314e+01,1.211599441828539625e+00,-5.660313862983750255e+01,-8.208395383515436095e+01,-7.563507028232082519e+01,-6.188501651170056306e+01,-4.633856012451510509e+01,-3.802289930880030511e+01
-6.469353920465006524e+01,-2.788808131561366821e+01,3.680545788946957231e+01,4.653906033837405687e+01,-5.052512885036516366e+01,4.288388626859557462e+00,-5.429806265167547252e+01,-8.003356015664566314e+01,-7.421205510440584874e+01,-6.083696001215945870e+01,-4.433871342761668188e+01,-3.991077978178280006e+01
-6.055172081260520400e+01,-2.409199085618173086e+01,3.645972995685451679e+01,4.241327319015575625e+01,-4.829473701865573787e+01,6.217822594679363490e+00,-5.298684206208054093e+01,-7.862332737124199866e+01,-7.379234370929384568e+01,-6.120214005908263744e+01,-4.268058721865538274e+01,-3.988215320121486229e+01
-5.643979549440841481e+01,-2.108698072076742847e+01,3.535281477406998363e+01,3.880227806198362117e+01,-4.581172658532586439e+01,7.450168360482622987e+00,-5.253146649591006678e+01,-7.736909004643374033e+01,-7.383471577261525454e+01,-6.238223179109685645e+01,-4.097551408073478996e+01,-3.751627921536889687e+01
-5.176752421734151710e+01,-1.723397190491804309e+01,3.453355231285046756e+01,3.461586794784036414e+01,-4.324616978226838881e+01,9.269376460397603879e+00,-5.211256222736222554e+01,-7.539752053989279545e+01,-7.331589041220318848e+01,-6.322505550955531106e+01,-3.833913548758900447e+01,-3.161870388118470032e+01
-4.612156438961584115e+01,-1.184540998827513292e+01,3.427615440176569450e+01,2.927129071705742902e+01,-4.049678594918091079e+01,1.208247049735008005e+01,-5.134130664835566193e+01,-7.252498235795050618e+01,-7.186034273625172375e+01,-6.314623885104627732e+01,-3.459227794610482931e+01,-2.165726483692916915e+01
-4.055946978075756704e+01,-6.287740803186146366e+00,3.427172897799433571e+01,2.392080494774005572e+01,-3.792658897745236857e+01,1.498885518964235253e+01,-5.065172342515568005e+01,-6.954900435374896972e+01,-6.997102212121174603e+01,-6.244687464900191287e+01,-3.067018605013837629e+01,-8.738060606249192119e+00
-3.650897440198652788e+01,-2.122722168072403992e+00,3.438625223433486155e+01,1.999129870102428086e+01,-3.614795293617012817e+01,1.711474244898858643e+01,-5.045896695937298659e+01,-6.728285556690390479e+01,-6.812308546212946680e+01,-6.147546560201982402e+01,-2.758568454342989185e+01,4.519915854901358720e+00
-3.425683546876608432e+01,6.122058216503474259e-01,3.486904129083490034e+01,1.759937025438423319e+01,-3.538006213350099216e+01,1.857718508018579229e+01,-5.051234841173063472e+01,-6.576424930901805510e+01,-6.621040162088814895e+01,-6.002449779044412992e+01,-2.548495915720005556e+01,1.455512667194524035e+01
-3.343709908767475980e+01,2.528676842857119578e+00,3.596577593094804115e+01,1.626376437793007668e+01,-3.553218507285934891e+01,1.984781220849255234e+01,-5.035749580370311662e+01,-6.465267377661236026e+01,-6.406302405120369770e+01,-5.788952408570834507e+01,-2.401537173159478655e+01,1.840585521795073731e+01
-3.410020628796165454e+01,3.475580980444231471e+00,3.757578726881973097e+01,1.613101342801816074e+01,-3.657682657832825157e+01,2.086670095921497747e+01,-4.990902072897910813e+01,-6.382097675530214786e+01,-6.188601580118297107e+01,-5.545098337246455600e+01,-2.304168343996208179e+01,1.565531068328218112e+01
-3.669078436326075376e+01,2.610004216764672424e+00,3.930078858043693657e+01,1.786988119547817178e+01,-3.856780354758308249e+01,2.107114203402821673e+01,-4.939102950058941843e+01,-6.335577729995378604e+01,-6.003445161490822812e+01,-5.341162704800103711e+01,-2.277196498721318108e+01,8.137941475377118650e+00
-4.134638701495160973e+01,-8.454958408039280338e-01,4.050089117455685539e+01,2.190489671908835589e+01,-4.131483632167739017e+01,1.977798378056212059e+01,-4.918673370462982319e+01,-6.341804741076690277e+01,-5.887441759746418057e+01,-5.242182782429037502e+01,-2.364796065709006356e+01,-2.076536098612709491e+00
-4.739000135972134586e+01,-7.148103794597541416e+00,4.024189756553064257e+01,2.796951877218208793e+01,-4.407116430720463285e+01,1.639519362297959404e+01,-4.987599096041207503e+01,-6.425907789877987852e+01,-5.889784502271525213e+01,-5.298831224031933118e+01,-2.619436055269941477e+01,-1.331482862965451019e+01
-5.360130642995964934e+01,-1.569168951954530833e+01,3.790961691081883345e+01,3.512764280531263950e+01,-4.594179271318135704e+01,1.092445039935767426e+01,-5.192863736939976604e+01,-6.601666253384864547e+01,-6.044253921736586932e+01,-5.517209286905292487e+01,-3.054656631758431118e+01,-2.378383701305116560e+01
-5.902429794072457270e+01,-2.468859435235709654e+01,3.433570358876957584e+01,4.203431795385411363e+01,-4.684255028309296165e+01,4.683339961658275818e+00,-5.501795333970778046e+01,-6.821994960949842834e+01,-6.302130494605242461e+01,-5.817781837278116797e+01,-3.589763676030650430e+01,-3.194252783953642805e+01
-6.322424342817144804e+01,-3.153579736841837899e+01,3.168844606015266763e+01,4.722217409572299118e+01,-4.759290687474108950e+01,4.142808251535801123e-02,-5.786941887303961352e+01,-6.973758247643367270e+01,-6.520552972441447537e+01,-6.057459403628605088e+01,-4.058688322093544798e+01,-3.733966134967493389e+01
-6.576204419602616724e+01,-3.401713545877677092e+01,3.174490873764633037e+01,4.942063221140467988e+01,-4.883834181665119445e+01,-1.048280051798178958e+00,-5.908732237444395707e+01,-6.954339130993639628e+01,-6.552108325999135729e+01,-6.112317486649893539e+01,-4.302557378370465102e+01,-4.046578216347575818e+01
-6.627181511689863669e+01,-3.151363746235864127e+01,3.475817765493406597e+01,4.819851642425084748e+01,-5.055672595918706946e+01,1.800394198328621354e+00,-5.809114285000593725e+01,-6.748136741161505370e+01,-6.346366526719604906e+01,-5.940056154198287430e+01,-4.264253605973893002e+01,-4.184501608895435965e+01
-6.557756694814135301e+01,-2.552910049322433750e+01,4.004846645530803073e+01,4.476274358182622137e+01,-5.286665421157129430e+01,7.457246407260972987e+00,-5.532105997719607871e+01,-6.425891513474313399e+01,-5.971145406990179083e+01,-5.595196333484469164e+01,-4.007865192661122933e+01,-4.153687772714622639e+01
-6.560997082543879344e+01,-1.888680140505217508e+01,4.672316942077447521e+01,4.148374318036663055e+01,-5.626930160210415011e+01,1.405768141507505398e+01,-5.185282555589577669e+01,-6.090806786294599107e+01,-5.560270722117797959e+01,-5.199940284529102996e+01,-3.670739702539945171e+01,-3.928074669765636173e+01
-6.723008802012762430e+01,-1.354286376665363179e+01,5.368722425385862351e+01,3.972188247185228249e+01,-6.057170944525762479e+01,2.009606638792073596e+01,-4.869785134936873305e+01,-5.814476376613943387e+01,-5.225416122103319339e+01,-4.857389949450542588e+01,-3.379676277208618274e+01,-3.493686637773000569e+01
-6.888661417395982767e+01,-9.183057096392175822e+00,5.970355707794900724e+01,3.850279392680877066e+01,-6.433369752873390723e+01,2.512934886623283859e+01,-4.617706611428708641e+01,-5.599664693975185514e+01,-4.989179471725346104e+01,-4.588480220896434503e+01,-3.186317749992560522e+01,-2.903999133828983048e+01
-6.806214153534766353e+01,-4.504250058347724739e+00,6.355789147737799993e+01,3.590653769956433194e+01,-6.572792324520492002e+01,2.921679000446302865e+01,-4.408568277647814426e+01,-5.410890663888360308e+01,-4.807461485853129801e+01,-4.379932638617005125e+01,-3.082827203002078065e+01,-2.278470252840582333e+01
-6.353393295438968380e+01,5.907832426749693999e-01,6.412471619743936913e+01,3.126730915169097713e+01,-6.365837190813205382e+01,3.187691549124649271e+01,-4.244430300703897530e+01,-5.241570430272358294e+01,-4.653315526751102027e+01,-4.262048076868402546e+01,-3.063998825454635622e+01,-1.701575691078063457e+01
-5.595619296514183105e+01,4.809201287193215713e+00,6.076539425270636485e+01,2.554313880738100551e+01,-5.817133043468624010e+01,3.220124473673306653e+01,-4.169639581880878154e+01,-5.132233386485438587e+01,-4.553223227377674931e+01,-4.301245356233527417e+01,-3.147502671966075027e+01,-1.155420402542937097e+01
-4.703584125872188793e+01,7.055540667318061843e+00,5.409138192640779152e+01,2.012790313731298042e+01,-5.040882086936511541e+01,2.999922492016484910e+01,-4.207396738242409384e+01,-5.115294049637117269e+01,-4.534876159623082970e+01,-4.517295503264018208e+01,-3.329616190531353936e+01,-5.833936834040012620e+00
-3.877742602781238190e+01,7.372014475951323753e+00,4.614944050412798759e+01,1.600280964217800772e+01,-4.235370638188913262e+01,2.632077140023600492e+01,-4.315305224335433110e+01,-5.166935150158837331e+01,-4.572993143354724310e+01,-4.826009947178295789e+01,-3.548411769473204203e+01,2.799178795730706826e-01
-3.261773883362513260e+01,6.604260364547534401e+00,3.922199919853333228e+01,1.345168277772724608e+01,-3.582605280597920228e+01,2.268551911582792613e+01,-4.423728844466585031e+01,-5.238137130855477608e+01,-4.616323599631765262e+01,-5.089424886948545179e+01,-3.725121256227036781e+01,6.212179517190379308e+00
-2.842944683806928907e+01,5.859945147070564353e+00,3.428939198549690559e+01,1.183052004328669149e+01,-3.124768036730290532e+01,2.007640962491357328e+01,-4.492402561894776625e+01,-5.315015080453710539e+01,-4.648080520622944078e+01,-5.222902480737886322e+01,-3.835454596825717744e+01,1.093661212317057085e+01
-2.483715457777886826e+01,6.016353905201530239e+00,3.085350848333386864e+01,1.000385090488427231e+01,-2.771523061485604345e+01,1.863039067805964422e+01,-4.522073882077378215e+01,-5.426395725714947815e+01,-4.694990494534581416e+01,-5.237429748624494863e+01,-3.921324360061329628e+01,1.395703261882606583e+01
-2.073094441045599723e+01,7.296972265025448046e+00,2.802791667583137070e+01,7.332933157791264200e+00,-2.427528612020779164e+01,1.797927048406509698e+01,-4.534367124477771682e+01,-5.594041427706333991e+01,-4.784751013648840257e+01,-5.197457478022924704e+01,-4.043417435098268697e+01,1.573480544371699530e+01
-1.637085491659443903e+01,9.355680411047977429e+00,2.572653532798881670e+01,4.144499451195337691e+00,-2.104287926690150101e+01,1.789933027107645458e+01,-4.540261943181867110e+01,-5.783103061544790791e+01,-4.901186006672431006e+01,-5.164987067444657498e+01,-4.224309220570584245e+01,1.697443491112881020e+01
-1.321563600416481954e+01,1.163045438079555183e+01,2.484609038530325265e+01,1.431918980739466996e+00,-1.917239110737664376e+01,1.856893200670949184e+01,-4.522554410012620707e+01,-5.913472462022257048e+01,-4.983230566616730073e+01,-5.175050471647947603e+01,-4.427059469329545038e+01,1.834229927688436490e+01
-1.254618696063769967e+01,1.355744286418418199e+01,2.610362982516122443e+01,9.402776520109690228e-02,-1.959423145926484011e+01,2.007750280522910558e+01,-4.459347857718486097e+01,-5.926151845476987035e+01,-4.975431441939597477e+01,-5.234700238719150178e+01,-4.594326555428462200e+01,2.030208334083363297e+01
-1.424603816965636760e+01,1.481073585968137252e+01,2.905677402967349821e+01,2.427956562671215179e-01,-2.198133694051673714e+01,2.208008443723722181e+01,-4.350465042020095296e+01,-5.827368692597251254e+01,-4.871138627568361557e+01,-5.319794179327828232e+01,-4.704475014394013499e+01,2.230634499607733900e+01
-1.720209049325650597e+01,1.557381111015336295e+01,3.277590160374197126e+01,1.241298227262178200e+00,-2.531767740993550220e+01,2.426403897384338038e+01,-4.198372098549359777e+01,-5.656722249893816468e+01,-4.693514966936442079e+01,-5.368722710093215511e+01,-4.769557883931266673e+01,2.290181548837173864e+01
-2.072255882355177903e+01,1.652083198793035024e+01,3.724339081181049238e+01,2.397243725353447097e+00,-2.926097599349793299e+01,2.698250347185388875e+01,-3.968789399343025792e+01,-5.418906160431774310e+01,-4.442766813403027726e+01,-5.292708084060289053e+01,-4.779332312492002188e+01,2.079057853765388941e+01
-2.534180546567914760e+01,1.846742397094669741e+01,4.380922943695038185e+01,3.566520841694719834e+00,-3.473635956193393781e+01,3.129450741551195136e+01,-3.577059116658666227e+01,-5.057895681919046638e+01,-4.076518207784370418e+01,-5.002969427423315096e+01,-4.671156224192505846e+01,1.562205999434245385e+01
-3.193002234692979258e+01,2.196521954379691621e+01,5.389524189104728435e+01,4.922270922934450788e+00,-4.288418599670188769e+01,3.814372538161341453e+01,-2.933807245542780251e+01,-4.509979670273053642e+01,-3.554968370649822162e+01,-4.461798798572571911e+01,-4.381672780296033665e+01,8.599046062821539493e+00
-3.946885042202882943e+01,2.702199157290380427e+01,6.649084199524908456e+01,5.963260093190055677e+00,-5.274669660050192732e+01,4.699092665714429273e+01,-2.051355281486751636e+01,-3.800929278574464831e+01,-2.922121288094028202e+01,-3.759079447231156479e+01,-3.949079886233243286e+01,2.143107746739021380e+00
-4.458166555833770417e+01,3.304314731896660362e+01,7.762481287761652027e+01,5.308556635814250413e+00,-6.074293497333896852e+01,5.554526381070746055e+01,-1.087498438930548161e+01,-3.070177011281948154e+01,-2.318438059709826859e+01,-3.111166939400269982e+01,-3.538987735396082712e+01,-1.923404084272564596e+00
-4.457138435966899692e+01,3.910467409757453083e+01,8.367605845755143434e+01,2.099654575640300891e+00,-6.376578784243911002e+01,6.155214018820206689e+01,-2.258275530132395126e+00,-2.456588802270992034e+01,-1.866608777377813055e+01,-2.713097556373405794e+01,-3.320413882639887504e+01,-3.503713757514538951e+00
-4.010958801062955814e+01,4.439373555900800739e+01,8.450332356994107386e+01,-2.871119209922471605e+00,-6.205480237106252162e+01,6.454774742602276660e+01,4.591058521889084254e+00,-1.977542020068280237e+01,-1.561492763433901843e+01,-2.591497523574248518e+01,-3.329290361143049637e+01,-3.275206709405284133e+00
-3.420261088713321840e+01,4.849722822265147215e+01,8.269983911008372957e+01,-7.853429909994059877e+00,-5.833936883966995168e+01,6.562264063961292493e+01,9.936175207314747126e+00,-1.537382682861390748e+01,-1.292891254472926832e+01,-2.606296286781611826e+01,-3.468884129547487305e+01,-1.477377874566492277e+00
-2.960317429814750767e+01,5.136425599996793068e+01,8.096743029840992278e+01,-1.145306413605577767e+01,-5.526910515949295188e+01,6.610233406797711098e+01,1.420089738609390295e+01,-1.024262811223858805e+01,-9.447744529529609636e+00,-2.566968541999214182e+01,-3.605543741879486674e+01,1.669311054382294879e+00
-2.751009296796485160e+01,5.301868092201269178e+01,8.052877389026735955e+01,-1.313782348586681081e+01,-5.398619747642716504e+01,6.662304822474021648e+01,1.733092694578901671e+01,-4.023771709328241464e+00,-4.753094734414144540e+00,-2.358560993488805124e+01,-3.656942604094791704e+01,5.064272330811864009e+00
-2.751436419885455820e+01,5.346800420018894329e+01,8.098236839932853570e+01,-1.317940755909407002e+01,-5.406398930260198910e+01,6.702531835121099846e+01,1.861393195377263510e+01,2.556177068784635686e+00,6.144232955876016700e-01,-1.990692138979979475e+01,-3.620331018565975256e+01,7.699441323026888107e+00
-2.817213319924394810e+01,5.289114874660022991e+01,8.106328194612437699e+01,-1.242882676200032321e+01,-5.420765724495946358e+01,6.681859940163319322e+01,1.703370465728750105e+01,8.084023575346510171e+00,5.526764536506226122e+00,-1.562463951586791389e+01,-3.542295092907302489e+01,1.014896094437971641e+01
-2.801165049548677644e+01,5.162554423095650691e+01,7.963719472671864708e+01,-1.179334733141186398e+01,-5.321929485631839185e+01,6.562106307805674987e+01,1.182643633468482491e+01,1.111887511323642030e+01,8.795836457890715110e+00,-1.208942115588419952e+01,-3.477789116389295287e+01,1.364664068085340531e+01
-2.611759005861720340e+01,4.997987823034107180e+01,7.609746828922877171e+01,-1.183554549578675363e+01,-5.041212315278738032e+01,6.322103062125453476e+01,2.769258540058482154e+00,1.067081053820583492e+01,9.554343254449879197e+00,-1.049720328020925209e+01,-3.466887033324498901e+01,1.807298685675577943e+01
-2.182869540187465418e+01,4.824739927664347761e+01,7.007609467878369003e+01,-1.296281738545059881e+01,-4.527138421456741213e+01,5.947182326914000328e+01,-9.889673372669584239e+00,6.378725876805841466e+00,7.472865470422760836e+00,-1.138259802076531990e+01,-3.526109991412506872e+01,2.181025981088738064e+01
-1.455271429368613845e+01,4.679236969403861224e+01,6.134508398798529782e+01,-1.564384316750203396e+01,-3.732752285702392214e+01,5.436807666349622536e+01,-2.558819450945458840e+01,-1.636871317395136582e+00,2.723979275541105860e+00,-1.452251100734539513e+01,-3.655686474251123030e+01,2.336232525886166300e+01
-4.632428587740385240e+00,4.579514388469064556e+01,5.042757247268647092e+01,-1.986421576909696185e+01,-2.694871041526496569e+01,4.826445466457484201e+01,-4.337319486587549733e+01,-1.294565825176863427e+01,-4.174852146746684589e+00,-1.926675916809635680e+01,-3.849856326493894443e+01,2.265407170526754399e+01
5.694518841240822304e+00,4.486825107010597691e+01,3.917373222911533759e+01,-2.438992392192182024e+01,-1.615421103280676718e+01,4.194278969951336933e+01,-6.173397699671375705e+01,-2.669220941410888415e+01,-1.241377231495023636e+01,-2.482406025668429805e+01,-4.094158511032351555e+01,2.083725290894721383e+01
1.307468323590583914e+01,4.336179008682451297e+01,3.028710685116345758e+01,-2.726119835071656183e+01,-7.996818411561885220e+00,3.649606491845001699e+01,-7.877695438594072641e+01,-4.148942060140389998e+01,-2.099611164916776573e+01,-3.041287653651151146e+01,-4.362944794894993805e+01,1.918082270035966985e+01
1.516467611492372214e+01,4.114620429321648487e+01,2.598152817853199181e+01,-2.724371689874840641e+01,-4.804517135960125529e+00,3.304117386514178634e+01,-9.283969038655483530e+01,-5.573459143536381077e+01,-2.905343062616399763e+01,-3.545142256435867267e+01,-4.630880187081496047e+01,1.839011198164585892e+01
1.190930408116558503e+01,3.879786654209138419e+01,2.688856246115932080e+01,-2.456642354296878494e+01,-6.939960426679955496e+00,3.224163633881487101e+01,-1.030605131893318855e+02,-6.809076896885873964e+01,-3.605488662864756577e+01,-3.962087492352696216e+01,-4.878663764174066131e+01,1.904887044530915929e+01
5.103564798322869578e+00,3.717161389821714579e+01,3.206804910012198206e+01,-2.050365113808448925e+01,-1.298794885741998684e+01,3.406737598826600077e+01,-1.092936626896426020e+02,-7.763275170141275794e+01,-4.165361931734543788e+01,-4.265531185373161094e+01,-5.075914248095949688e+01,2.203292073987564947e+01
-3.016486051708840765e+00,3.691678073542792049e+01,3.993326678735860469e+01,-1.647089730949837616e+01,-2.097115036208819205e+01,3.802058334358752489e+01,-1.116851698305653571e+02,-8.380707276496194424e+01,-4.553660607495165635e+01,-4.421106942387765315e+01,-5.179171865237326244e+01,2.781145618028395816e+01
-1.089221783137944932e+01,3.808684844744335152e+01,4.897906627903877563e+01,-1.329236829343316373e+01,-2.935902056692315298e+01,4.334616214691371994e+01,-1.106566256571623370e+02,-8.652860230093529026e+01,-4.758340571775018901e+01,-4.405828398037898097e+01,-5.171957035531556102e+01,3.577863447382468109e+01
-1.766080090359158916e+01,4.006474607142649802e+01,5.772554697522819112e+01,-1.110672785306304888e+01,-3.705561376803830598e+01,4.898025044810759709e+01,-1.070708452609501933e+02,-8.622072287166356830e+01,-4.801941851209907242e+01,-4.235613791873565503e+01,-5.097233332417152951e+01,4.432491073939023352e+01
-2.265679767670517464e+01,4.190583671894300721e+01,6.456263439585242736e+01,-9.736415523731725585e+00,-4.299774819421958227e+01,5.360164075632493308e+01,-1.020493686004972318e+02,-8.366753599013257769e+01,-4.731161992692759100e+01,-3.973219108816213918e+01,-5.037889556065827890e+01,5.089004108691139550e+01
-2.532580118784476042e+01,4.279610805494236558e+01,6.812190924298549533e+01,-8.988491486745518344e+00,-4.623509750577277799e+01,5.603623160033441053e+01,-9.665214160698596402e+01,-7.985848153360095125e+01,-4.602992482365460347e+01,-3.708967871693526064e+01,-5.071556935100898045e+01,5.258627372232999875e+01
-2.537355204087626959e+01,4.240230374803735458e+01,6.777585578910603203e+01,-8.816719898815900791e+00,-4.624899425306301026e+01,5.574162334207338176e+01,-9.173156150833750644e+01,-7.583728292677962202e+01,-4.482960781394564975e+01,-3.528249907138955166e+01,-5.245222474623660958e+01,4.809097953645041201e+01
-2.251313031356907501e+01,4.113233237033815470e+01,6.364546268409359442e+01,-9.577622948546132164e+00,-4.288165496617626360e+01,5.297668369775209385e+01,-8.781432729977287011e+01,-7.243623687454693538e+01,-4.430174019068717683e+01,-3.477450680673742056e+01,-5.566113950117796350e+01,3.871440924046681431e+01
-1.614313456262254931e+01,4.018982187626961178e+01,5.633295643907238315e+01,-1.219326252784289366e+01,-3.610583747473546623e+01,4.865962205707737809e+01,-8.490859690709244489e+01,-6.997941556341120872e+01,-4.457087887216801647e+01,-3.534387711982570579e+01,-5.986946428592233360e+01,2.723978556661107220e+01
-5.949785810806407227e+00,4.091011561946108088e+01,4.685990143044149647e+01,-1.753577656617192915e+01,-2.629506571094064427e+01,4.398188820374807051e+01,-8.259971608564644896e+01,-6.828326655469142281e+01,-4.515195754697496966e+01,-3.621664550732459276e+01,-6.416396002850650859e+01,1.634581618469980313e+01
6.941486717450223054e+00,4.334327544319117465e+01,3.640178872590869474e+01,-2.513503153159901160e+01,-1.462387106663477887e+01,3.960423877349560939e+01,-8.069463172470564416e+01,-6.716138997241935726e+01,-4.557781471237484539e+01,-3.692379167460672562e+01,-6.788522313263780461e+01,7.813065104881966150e+00
1.972809825706336895e+01,4.535357257264662678e+01,2.562547431574472157e+01,-3.255430973108278891e+01,-2.836843604722636414e+00,3.488623162030868485e+01,-7.977163334269526729e+01,-6.696837231855164418e+01,-4.621437745722499102e+01,-3.811537043387257739e+01,-7.131323892092834171e+01,2.112804360052766395e+00
2.871194959534932067e+01,4.345941458714850825e+01,1.474746499195437721e+01,-3.619319058425885061e+01,7.109645791631107770e+00,2.828198731710948266e+01,-8.080209633616715337e+01,-6.839715339833486496e+01,-4.810090453637450025e+01,-4.117677468862063961e+01,-7.541128087629981280e+01,-1.613874073218348970e+00
3.051539731829683788e+01,3.513018506339287228e+01,4.614787745244981032e+00,-3.307883875845938348e+01,1.310911174100806598e+01,1.898872446761603783e+01,-8.412104095302339601e+01,-7.162520478038565841e+01,-5.184831512825227406e+01,-4.686849222876723076e+01,-8.082113698756369047e+01,-4.815494204112555465e+00
2.390653703917032757e+01,2.095112632530920393e+01,-2.955410713718417348e+00,-2.287038913158324860e+01,1.364175566258348127e+01,8.199839575518730328e+00,-8.878727452138699050e+01,-7.581423027758140165e+01,-5.682405250620166015e+01,-5.439905196208307103e+01,-8.718549623470532595e+01,-8.244965593680431581e+00
1.132503801178111758e+01,4.916921353472301526e+00,-6.408116658172382962e+00,-8.753163930799985337e+00,9.148576828289813889e+00,-1.358256740337645763e+00,-9.289865682280098724e+01,-7.943200722064547392e+01,-6.135222378712814617e+01,-6.175822976015901844e+01,-9.327591508157382805e+01,-1.132722281570413259e+01
-1.967424954626400435e+00,-7.497012304358665169e+00,-5.529587349602183011e+00,3.954583083327981807e+00,2.142546285836612441e+00,-6.917668996484851007e+00,-9.450309131942795204e+01,-8.093038846605041670e+01,-6.362310064190774028e+01,-6.682041110141186380e+01,-9.762314247805534251e+01,-1.300172072537472623e+01
-1.105322501868530338e+01,-1.238796842901059669e+01,-1.334743410201695735e+00,1.088291629579880038e+01,-4.433448863722841971e+00,-7.100596680042067455e+00,-9.258579174174772675e+01,-7.951542554488293035e+01,-6.281022956114586719e+01,-6.847153368051941413e+01,-9.941693253080423176e+01,-1.310074917959083862e+01
-1.441639100452227851e+01,-9.982364720737155750e+00,4.434026283902067433e+00,1.138411477580287112e+01,-8.988158509746854818e+00,-2.910472693938363165e+00,-8.783191218967715486e+01,-7.590385935319801547e+01,-5.985805686206705190e+01,-6.741575842235693017e+01,-9.937060324046377957e+01,-1.276234979811317949e+01
-1.457156325377316008e+01,-4.635153380087936092e+00,9.936409873795339465e+00,8.855157023240742831e+00,-1.189552508051306745e+01,2.587082514120081722e+00,-8.247415989355774002e+01,-7.223912907599593325e+01,-5.713433265996764732e+01,-6.598008757320587847e+01,-9.966227125391738184e+01,-1.373754559766460837e+01
-1.537017181143660061e+01,-1.495123850401081311e+00,1.387504796113866234e+01,7.772275783210301547e+00,-1.443297401951749137e+01,6.223836052178676859e+00,-7.892946851052725776e+01,-7.073530573491916584e+01,-5.691606462937269839e+01,-6.659359385544928500e+01,-1.025699264935796435e+02,-1.741823670687834635e+01
-1.824093956404662364e+01,-2.778327195387096715e+00,1.546261236875559675e+01,9.972349947359107958e+00,-1.687857551159628855e+01,6.529733064094408235e+00,-7.840225126326309635e+01,-7.226480628418593710e+01,-6.003477471980180269e+01,-7.026272100331409831e+01,-1.090064111389359738e+02,-2.404650921097733374e+01
-2.149281626154801828e+01,-7.380513465912475368e+00,1.411230279572448154e+01,1.406314864036485623e+01,-1.802934237639775716e+01,3.755268295587331995e+00,-8.067486771195447659e+01,-7.621785753065721281e+01,-6.577539799573467860e+01,-7.646283653018346627e+01,-1.183463878506023690e+02,-3.245580531390632473e+01
-2.298443408751028727e+01,-1.318956175676987641e+01,9.794872330822180118e+00,1.786394533809895790e+01,-1.673288280450879029e+01,-1.094248325242989317e+00,-8.469089548325446515e+01,-8.127944478108705084e+01,-7.261851117356538055e+01,-8.398836106800061430e+01,-1.292027916272029415e+02,-4.070561852368066980e+01
-2.254796256126622112e+01,-1.884180916944588091e+01,3.706153391894895233e+00,2.052892302945452130e+01,-1.346874972476597954e+01,-6.793451294849319311e+00,-8.901909567177062854e+01,-8.602678918247973172e+01,-7.888736975083145353e+01,-9.150456312163821337e+01,-1.399801179608705581e+02,-4.710225186711932110e+01
-2.211663933035447371e+01,-2.401083038334434860e+01,-1.894191052922598706e+00,2.282717377938059045e+01,-1.035514389449409300e+01,-1.209332122976958246e+01,-9.225220784506186078e+01,-8.918703147938428799e+01,-8.314549907006178842e+01,-9.769958463997508602e+01,-1.491705770042976837e+02,-5.068379957591482565e+01
-2.397907586619261266e+01,-2.899207451959473403e+01,-5.012998653342222610e+00,2.607734159231742055e+01,-9.574796975919596775e+00,-1.614300865703379984e+01,-9.355979823466749679e+01,-8.998446897507460562e+01,-8.463455930155053863e+01,-1.016485011425678380e+02,-1.558478969949566419e+02,-5.133199206390379032e+01
-2.850412443108549709e+01,-3.389048662557257785e+01,-5.386362194434683559e+00,3.058053641443662940e+01,-1.147701506741354471e+01,-1.881999397625913062e+01,-9.307725124894407998e+01,-8.853553749355923230e+01,-8.364760381403678480e+01,-1.033436323751015209e+02,-1.600378075902612238e+02,-4.991878394711434908e+01
-3.352799805362409558e+01,-3.814931531110762819e+01,-4.621317257438754211e+00,3.506312473476912572e+01,-1.422682991589863732e+01,-2.061241356907789068e+01,-9.181141730512833021e+01,-8.585572304289222245e+01,-8.142597372995784610e+01,-1.037859923716078612e+02,-1.625362828199995988e+02,-4.795391794293441023e+01
-3.625234844999623363e+01,-4.095154604919531494e+01,-4.699197599162022954e+00,3.779567979235723385e+01,-1.549815567334482580e+01,-2.209818932589672258e+01,-9.095971415828402939e+01,-8.325276692835129211e+01,-7.939597411631444857e+01,-1.042352506085448027e+02,-1.642817754284353668e+02,-4.659148817163385559e+01
-3.563261749047070737e+01,-4.179879842308804427e+01,-6.166180932588060770e+00,3.803856782976669137e+01,-1.451736210089691603e+01,-2.330699127871586640e+01,-9.106827002763941437e+01,-8.152706522924063393e+01,-7.829800227996466333e+01,-1.051782833918113482e+02,-1.657428435008407348e+02,-4.572811039958234858e+01
-3.298260337776014239e+01,-4.078148452398648516e+01,-7.798881146204882597e+00,3.646123111610819478e+01,-1.252225992590967785e+01,-2.368436307330251012e+01,-9.178788973418178898e+01,-8.068635832141760034e+01,-7.803326735161655847e+01,-1.062159822286219253e+02,-1.668128241434809809e+02,-4.439949251979284384e+01
-3.059290800265296539e+01,-3.853423345074964601e+01,-7.941325448083036420e+00,3.442979858573937690e+01,-1.143479000879345797e+01,-2.275217226981735408e+01,-9.225728878433154989e+01,-8.023344483489522361e+01,-7.809648531274294214e+01,-1.068226536401807039e+02,-1.671897276129931242e+02,-4.251021698511138425e+01
-2.992065938927082414e+01,-3.581934451599186531e+01,-5.898685126715176530e+00,3.293457877037809567e+01,-1.228374623446769220e+01,-2.055964553307254405e+01,-9.162121745165538300e+01,-7.954867888451342139e+01,-7.792910468850546124e+01,-1.068307695435979525e+02,-1.667443158131572147e+02,-4.142303846278653623e+01
-3.097984185703185034e+01,-3.314742151911640633e+01,-2.167579662086408732e+00,3.216929661779644789e+01,-1.480460243273175713e+01,-1.756591552132916689e+01,-8.944306767946295622e+01,-7.815073578965363765e+01,-7.712306290822310473e+01,-1.064085443219899929e+02,-1.656256003092007631e+02,-4.243006710041628793e+01
-3.312512215125490656e+01,-3.094438876087840740e+01,2.180733390366948132e+00,3.203944476863891566e+01,-1.812443137752680755e+01,-1.444884043772323245e+01,-8.591813207822599452e+01,-7.589178360534275214e+01,-7.561223966146438613e+01,-1.059580700287473434e+02,-1.642676258108294576e+02,-4.556350761466502064e+01
-3.618949078790602414e+01,-2.997508652808209462e+01,6.214404259806616260e+00,3.290706623957171928e+01,-2.165691948867878125e+01,-1.202265637039157298e+01,-8.177975464794073446e+01,-7.298965603316389661e+01,-7.368497014336166728e+01,-1.059104245863605911e+02,-1.633243322496222731e+02,-5.008721762759758889e+01
-4.072126981306431048e+01,-3.119566067366414686e+01,9.525609139374955348e+00,3.559646582827263472e+01,-2.543719455623377002e+01,-1.096910345671745368e+01,-7.790822691456416749e+01,-6.981439067316858882e+01,-7.178258767304988908e+01,-1.064534441230538988e+02,-1.633697255901872722e+02,-5.510050967035257230e+01
-4.703078519997504259e+01,-3.503994997426514146e+01,1.199083522567663351e+01,4.054582944334126182e+01,-2.957494825346074308e+01,-1.157054753350170451e+01,-7.499277647584492001e+01,-6.677461664860989288e+01,-7.041208301324795116e+01,-1.075745407783993386e+02,-1.646627449473565719e+02,-5.949197819036155721e+01
-5.422972875016412786e+01,-4.121172488197856154e+01,1.301800386814407773e+01,4.719106741975118524e+01,-3.340899539665083040e+01,-1.399538276665102643e+01,-7.353759987228768580e+01,-6.451212883677177956e+01,-7.026172424247502590e+01,-1.094168676053548097e+02,-1.673846076404804251e+02,-6.245534542575609294e+01
-6.043896664992577428e+01,-4.920507484516900121e+01,1.123389180470690896e+01,5.430818073606926788e+01,-3.540994223485678560e+01,-1.872102202608394705e+01,-7.390037177714764027e+01,-6.391061926620735534e+01,-7.210259153967540158e+01,-1.123824873295286011e+02,-1.719144053735246871e+02,-6.442186368566954968e+01
-6.398630274905654147e+01,-5.848881305916283679e+01,5.497489689835356685e+00,6.074095593251956871e+01,-3.421221827906443025e+01,-2.610103284913778054e+01,-7.601992316177039299e+01,-6.555766877300142426e+01,-7.627917762889860853e+01,-1.167400226392577878e+02,-1.784993599868670628e+02,-6.689785547396900256e+01
-6.446613446109675749e+01,-6.806682371092661299e+01,-3.600689249896716237e+00,6.575852779400439374e+01,-2.986766437759960979e+01,-3.538119043958499077e+01,-7.908694684924624596e+01,-6.909620489525283915e+01,-8.221430382483445953e+01,-1.221827182768784041e+02,-1.866185327444318887e+02,-7.131742874648281827e+01
-6.278094179945148312e+01,-7.635185537761218200e+01,-1.357091357823604660e+01,6.902627200875102176e+01,-2.400083531267952353e+01,-4.451961208615704635e+01,-8.167494343399886247e+01,-7.315010234100354580e+01,-8.844032466866509878e+01,-1.277213580738793297e+02,-1.948938323276545361e+02,-7.808737326641417553e+01
-6.034563889524405766e+01,-8.179692734411365507e+01,-2.145128844895337039e+01,7.050624739479118830e+01,-1.875859549427616813e+01,-5.119361834771498820e+01,-8.244293409380559012e+01,-7.602607013390715451e+01,-9.322106708582555257e+01,-1.320672613329799674e+02,-2.017850917936120538e+02,-8.630529154644722212e+01
-5.846996977817985197e+01,-8.383106406451121018e+01,-2.536109428642353336e+01,7.058551518583598750e+01,-1.574898665316685964e+01,-5.409866460980597935e+01,-8.092878114287816516e+01,-7.667681994018708735e+01,-9.537887163205481045e+01,-1.344419296738221306e+02,-2.064435677001968372e+02,-9.426199259350022430e+01
-5.845697596062026236e+01,-8.335198995692468316e+01,-2.489501399640503720e+01,7.037578297191559784e+01,-1.588365183300091665e+01,-5.347664796823705302e+01,-7.775420038047406024e+01,-7.508058369196542969e+01,-9.472781438383459829e+01,-1.349992579761974980e+02,-2.089568579927420728e+02,-1.003869649342344701e+02
-6.163519034470680680e+01,-8.204280170994316279e+01,-2.040761136534552378e+01,7.140694916763602862e+01,-1.970780605413852982e+01,-5.041981548500197619e+01,-7.396802295176604503e+01,-7.175682445276005694e+01,-9.179777588358321339e+01,-1.342210438858517705e+02,-2.098089244695091793e+02,-1.037570938778597593e+02
-6.875060661759358993e+01,-8.105557988304619244e+01,-1.230497326557047799e+01,7.462924605668334266e+01,-2.740322976407366440e+01,-4.578199074381925726e+01,-7.016803000575794158e+01,-6.716082537298993316e+01,-8.728993912742245698e+01,-1.321748493974607186e+02,-2.092260837155769764e+02,-1.039301487624053095e+02
-7.920168263020384813e+01,-8.051460152415778282e+01,-1.312918894080703947e+00,7.974005185513243532e+01,-3.826892508039861696e+01,-4.000614171543779918e+01,-6.636864103164886330e+01,-6.170240455731866547e+01,-8.189522693734868142e+01,-1.286992304249554877e+02,-2.071798204599824089e+02,-1.008580045812984736e+02
-9.071446330987146212e+01,-7.996623855024593297e+01,1.074822475948972489e+01,8.528214063880963636e+01,-5.021295966486387385e+01,-3.374368389014006908e+01,-6.258797366207065949e+01,-5.609709118618160062e+01,-7.645365144086049725e+01,-1.240773543339762170e+02,-2.039236168868329742e+02,-9.541871935160844487e+01
-1.001539776074166355e+02,-7.903615949326081136e+01,2.111781811401094089e+01,8.946371668527453380e+01,-6.027349649316815317e+01,-2.815983696368855860e+01,-5.923828934405539570e+01,-5.136533129826747057e+01,-7.198329232288391211e+01,-1.192231583118941671e+02,-2.003236183838037050e+02,-8.961986355981667884e+01
-1.052809934473005740e+02,-7.781206946371150934e+01,2.746892398343517527e+01,9.127038785439873436e+01,-6.618779255384316684e+01,-2.447214450470140434e+01,-5.681263526157825083e+01,-4.834631945256828800e+01,-6.927894535212446669e+01,-1.152094215537975685e+02,-1.975259128453536732e+02,-8.548602417109744067e+01
-1.058998669748644659e+02,-7.664134144375208280e+01,2.925852553094960840e+01,9.088959678601187875e+01,-6.761033338862422681e+01,-2.313845936707281936e+01,-5.530277126610217664e+01,-4.716546174550227022e+01,-6.835857748608921725e+01,-1.126922891511951548e+02,-1.962350875177718024e+02,-8.368856047167174950e+01
-1.035790105072942993e+02,-7.571685961982042556e+01,2.786215088730233091e+01,8.927193764641002360e+01,-6.598992597963130891e+01,-2.354226342510538572e+01,-5.409211814014689423e+01,-4.719455741505688451e+01,-6.841064614014472056e+01,-1.117399820306005864e+02,-1.963663604803319629e+02,-8.326095111493381751e+01
-1.003085307747789159e+02,-7.501531514447860616e+01,2.529321563012009833e+01,8.738706366007926363e+01,-6.325379855586957234e+01,-2.462291005217308637e+01,-5.249858719648852912e+01,-4.760368942210904208e+01,-6.839919254164196616e+01,-1.120334890284773053e+02,-1.974152325861894610e+02,-8.239328703472770599e+01
-9.704864584057132504e+01,-7.440839497803519009e+01,2.264025086234733308e+01,8.558903688550411459e+01,-6.036095779146504725e+01,-2.574556309354021622e+01,-5.041967694645119735e+01,-4.799597086512154220e+01,-6.773378439249319172e+01,-1.131153007868340126e+02,-1.989849809662466953e+02,-7.979409552534866634e+01
-9.338519077175678262e+01,-7.360087486833266723e+01,1.978431590322669109e+01,8.345853793116276620e+01,-5.703614022348902068e+01,-2.681001117750101059e+01,-4.843324631340185960e+01,-4.853138635278359203e+01,-6.644864664735703741e+01,-1.145334914004132543e+02,-2.008440728255390013e+02,-7.588800040553046244e+01
-8.833796231063919890e+01,-7.200412651187275515e+01,1.633383579856026557e+01,8.016866719837396715e+01,-5.263141213777021221e+01,-2.770484850949158684e+01,-4.722802213573117314e+01,-4.951402966820376861e+01,-6.493880201158718535e+01,-1.159219877477620599e+02,-2.026668664297307032e+02,-7.296782781356640157e+01
-8.132075051228616758e+01,-6.887216867596339398e+01,1.244858183610768698e+01,7.505829249989758978e+01,-4.697018332299631993e+01,-2.797191681208606084e+01,-4.693347589354223004e+01,-5.094346878903308351e+01,-6.358457209196432558e+01,-1.169654047563455777e+02,-2.039457641225275211e+02,-7.332974090928001942e+01
-7.277649290488653833e+01,-6.370687277694214856e+01,9.069620127720355640e+00,6.814762006438314756e+01,-4.075994053377584692e+01,-2.692840635628762413e+01,-4.697884860990262013e+01,-5.241178493840762087e+01,-6.248833257599371649e+01,-1.172924756617116060e+02,-2.041456048661676164e+02,-7.637100401240708436e+01
-6.436939310340365239e+01,-5.665532505243395178e+01,7.714068050736730520e+00,6.039851956235474262e+01,-3.562483090446767164e+01,-2.396186492598747009e+01,-4.646418395241420285e+01,-5.333564974286262839e+01,-6.151621811261748007e+01,-1.166739047253517327e+02,-2.029623862400740393e+02,-7.852025398440399329e+01
-5.819868301587111148e+01,-4.880904330689079273e+01,9.389639708738494406e+00,5.343770079512938764e+01,-3.318085246606417371e+01,-1.915511872936208349e+01,-4.480380181344354895e+01,-5.347272003131023865e+01,-6.069947062233350721e+01,-1.155913955133028850e+02,-2.007474505467437780e+02,-7.664393296854039761e+01
-5.547276028341502752e+01,-4.205161316438267249e+01,1.342114711878173416e+01,4.878252498460821585e+01,-3.373072266451906387e+01,-1.376251176933027942e+01,-4.216843248259495169e+01,-5.325577125960973035e+01,-6.036617031637353392e+01,-1.153100146720346117e+02,-1.985928283380877133e+02,-7.042780164534765674e+01
-5.612176825627823717e+01,-3.789892025631343131e+01,1.822284799970539737e+01,4.707974827516262906e+01,-3.642889514088138725e+01,-9.288045709097406899e+00,-3.913204841499723585e+01,-5.326342832495220847e+01,-6.044572762413150002e+01,-1.167057376361682941e+02,-1.973597665372681433e+02,-6.150310289685349829e+01
-5.910007860914871713e+01,-3.614604299084503225e+01,2.295403561803544790e+01,4.765898758461545981e+01,-4.030738465469146803e+01,-6.035857747079163893e+00,-3.611942846251520223e+01,-5.345368262514932667e+01,-5.976945215580825277e+01,-1.188140049143720205e+02,-1.965591076675066802e+02,-5.177138656224185809e+01
-6.280982167732405230e+01,-3.506120897519078028e+01,2.774861270185607509e+01,4.889046277207867064e+01,-4.463919618865892147e+01,-3.108875914666673346e+00,-3.349596398299712519e+01,-5.311946157048272710e+01,-5.618986880932104100e+01,-1.184506815073693673e+02,-1.943704272666606130e+02,-4.293979677360795932e+01
-6.610355978399113042e+01,-3.302019073472660438e+01,3.308336904897814890e+01,4.945766556871812725e+01,-4.908533752220258606e+01,4.794369249503527275e-01,-3.192836326424329130e+01,-5.125262485132510903e+01,-4.713392689396456348e+01,-1.107311140582965550e+02,-1.883370127353823023e+02,-3.645071203473947463e+01
