-2.807360580968834896e+01,4.069780393739365110e+01,6.877140974708164833e+01,-6.190077789521190255e+00,-4.836997073367674460e+01,5.482670092746709400e+01,1.324371011422603885e+02,1.623607562826202013e+02,1.059479999021495757e+02,-1.175953511238379789e+01,-6.942308331711906533e+01,-7.533188306562611558e+01
-3.948906238008925929e+00,4.607319658011532226e+01,5.002210281812405412e+01,-2.098921536093909523e+01,-2.935145314751850876e+01,4.571158826030242039e+01,1.329551541262747776e+02,1.561845745424261054e+02,1.038535103326350821e+02,-1.054041978560078263e+01,-6.926022560656025462e+01,-1.501109390455014534e+02
-3.381899467322593722e+01,1.162347734352424844e+01,4.544247201675020165e+01,1.353234020206779498e+01,-3.956464515470225507e+01,2.616647092094691729e+01,1.183918511745099238e+02,1.481863265283581370e+02,8.665293695418391451e+01,-2.849520508207479708e+01,-7.847504537717325945e+01,-1.130994042550283467e+02
-6.378341984990542812e+01,-1.863284575753394279e+01,4.515057409237169850e+01,4.356472065999366095e+01,-5.443534281963079025e+01,1.083108865286393474e+01,1.131102093305036362e+02,1.376565248188159103e+02,7.297049754728982407e+01,-5.157344670402086706e+01,-9.238705860339948117e+01,-1.410576116702013962e+02
-1.082469480882786570e+02,-2.970596773211679675e+01,7.854098035616217999e+01,6.884500269989091237e+01,-9.340963894171328263e+01,2.436243873505917890e+01,1.172545190646799824e+02,1.492486840168833453e+02,8.193358924445006153e+01,-5.101385052655884778e+01,-9.175826073185918119e+01,-1.417628737796726739e+02
-1.035896806064937863e+02,-4.063354269669894592e+01,6.295613790979516011e+01,7.442069378643101629e+01,-8.333027187605595998e+01,8.620540032559940613e+00,1.115793078100988254e+02,1.499396734328243213e+02,7.965552580005653738e+01,-4.657517603160874842e+01,-9.148081341097142172e+01,-8.077779700895227677e+01
-5.949387146474756349e+01,-2.657738921062806625e+01,3.291648225411969975e+01,4.539508154769312398e+01,-4.872233837903486631e+01,3.063596054033161931e+00,1.061438531437044333e+02,1.510826057374116829e+02,7.185830433059818745e+01,-4.787771897486140205e+01,-9.655785581950590313e+01,-8.891597395765401757e+01
-7.849721577902376168e+01,-3.122931575593196385e+01,4.726790002309180494e+01,5.486495386319001000e+01,-6.294972522664087933e+01,7.951587822500767899e+00,1.158012995200027433e+02,1.590005375783059662e+02,9.380314754378137820e+01,-3.980826700797899775e+01,-9.229103236948745348e+01,-4.781874138810567842e+01
-9.247050556550810541e+01,-2.050338264789479936e+01,7.196712291761312486e+01,5.901192502355341674e+01,-8.224924530508114628e+01,2.329081594999026095e+01,1.210790956813516459e+02,1.695514809744034039e+02,1.073990456226025429e+02,-2.172923348621283779e+01,-7.845362419416134969e+01,-1.223525395843164603e+02
-4.052880903635998067e+00,4.429432785237333547e+01,4.834720875600903156e+01,-1.998299065614851244e+01,-2.862093519049164669e+01,4.394738827367739731e+01,1.413571926491255795e+02,1.873536578512034509e+02,1.228326241578168521e+02,1.180331166691722089e+01,-5.473258966451231089e+01,-1.168436460166008288e+02
1.576365931448591695e+01,6.507063457202832524e+01,4.930697525754211341e+01,-4.027814718564348340e+01,-1.915001292376714659e+01,5.485638264614000548e+01,1.421953321216877271e+02,1.917083722868963775e+02,1.300715202510334620e+02,7.374477864223679902e+00,-4.525316263923100735e+01,-1.145097568891084165e+02
2.543624030325415220e+01,7.551034900604778954e+01,5.007410870279343840e+01,-5.038624137615693144e+01,-1.467874043067945067e+01,6.045725439578791338e+01,1.525542873036291667e+02,1.955964887160922956e+02,1.379965583351009570e+02,2.339485960455935043e+01,-4.013386899889466974e+01,-7.230695187708151650e+01
1.521943658592672222e+01,5.581045308854584164e+01,4.059101650261913363e+01,-3.551416175683210952e+01,-1.505842711601266970e+01,4.582043073687364654e+01,1.477973208577157607e+02,1.926304311152156572e+02,1.210472666901408445e+02,2.519199910700082867e+01,-4.433941246397903058e+01,-4.996717469331738215e+01
-2.450988961830225676e+01,1.575756067516639902e+01,4.026745029346885474e+01,4.288749844437867331e+00,-3.480065126575144774e+01,2.556216610658452382e+01,1.376224856427938334e+02,1.771580027437441345e+02,1.075026027577870167e+02,2.318129258349371113e+00,-7.277251882507913194e+01,-7.293556636561524442e+01
-7.401150967369798650e+01,-2.966454909863125522e+01,4.434696057506703681e+01,5.413451091605376320e+01,-5.920152405725979605e+01,4.824351258724735025e+00,1.319325090583841984e+02,1.689732820681173848e+02,1.066750411133825622e+02,-6.788496808265216842e+00,-7.697013147619033191e+01,-9.783082281563984850e+01
-5.495763220492888479e+01,-1.816792473735938884e+00,5.314083973119326032e+01,3.068222177123343286e+01,-5.411269548037887489e+01,2.310922090405827234e+01,1.456711572012376905e+02,1.937152287058444813e+02,1.188578212148320432e+02,7.361754589204300814e+00,-6.208113883446697656e+01,-1.000731162529401814e+02
-1.304212456895774253e+00,6.572248127842574661e+01,6.702669373532170027e+01,-3.229973689037397122e+01,-3.424483782368790941e+01,6.627159165389657858e+01,1.694326844861538746e+02,2.287286646343703751e+02,1.547439303312641528e+02,4.494742977491133473e+01,-3.307688045132642429e+01,-7.393843769285673773e+01
2.845590512913878456e+01,7.571270460607505015e+01,4.725679947693623717e+01,-5.208546327972311474e+01,-9.464688204771249502e+00,6.143429600440916261e+01,1.644380357333702420e+02,2.267861050519263131e+02,1.521074214713312358e+02,3.820469203251187906e+01,-3.376415674206929651e+01,-7.191802178820231006e+01
-3.413849933522630664e+01,2.810539947829436613e+01,6.224389881352044540e+01,5.546074836377682615e+00,-4.821554411194438927e+01,4.275830709023032483e+01,1.551417985685001497e+02,2.179443842805167719e+02,1.412469527818965389e+02,3.664521997611159065e+01,-4.435945976796553225e+01,-5.877460775506501278e+01
-1.162126260526584218e+02,-1.899668071417700688e+01,9.721594533848107744e+01,6.775177452603149675e+01,-1.066898256769473221e+02,3.919844070556018067e+01,1.608904619231205686e+02,2.213981410877660210e+02,1.421142729299339749e+02,3.110672665121709457e+01,-4.014775760307573194e+01,-7.299043381127764007e+01
-1.302925258853544506e+02,-6.139105780678296753e+01,6.890146807857118461e+01,9.599076214993506539e+01,-1.019741841763759709e+02,1.433322694765315042e+00,1.423099118517241095e+02,1.967974787373522929e+02,1.202288682909273234e+02,7.205714162136896306e+00,-5.503741630941279084e+01,-1.293811813886929372e+02
-5.708541491756263042e+01,-6.968275806118841231e+00,5.011713911144366307e+01,3.212035791339348378e+01,-5.352551297009492970e+01,2.167354853375875834e+01,1.575938031074819889e+02,2.106652910217179908e+02,1.380777513730273824e+02,1.843930371134122836e+01,-4.013429256110505605e+01,-1.067778340032680973e+02
5.815307561436826589e+00,4.150132122038188953e+01,3.568601365894513577e+01,-2.121656970805111797e+01,-1.487622257282202476e+01,3.619265851955501034e+01,1.576894245445988929e+02,2.223731333313961898e+02,1.407605074654646842e+02,3.497902662274629648e+01,-3.457451437249255832e+01,-6.488994792249175703e+01
2.934150082804216808e+01,5.486538465921701402e+01,2.552388383117507331e+01,-3.975443084488539114e+01,-5.111950420756170566e-01,4.015649877787514299e+01,1.620745697870434014e+02,2.311536645867939512e+02,1.467702780128205120e+02,4.147246405590428964e+01,-2.885161439631018254e+01,-7.796527450175106821e+01
1.381007200501527699e+01,5.800531311700171244e+01,4.419524111198671790e+01,-3.361681857210800217e+01,-1.521885296390425424e+01,4.855943076557998239e+01,1.611736715413673267e+02,2.324775365208123219e+02,1.556647887568145734e+02,4.218414972166124244e+01,-2.328426837830355822e+01,-8.314079005485321261e+01
1.809170521065890469e+01,5.157698552903549682e+01,3.348528031837680885e+01,-3.254486166377074596e+01,-1.019828727612535957e+01,4.240796479849905154e+01,1.553291792636156003e+02,2.423290975390183348e+02,1.531197460935402148e+02,4.171010266794982613e+01,-3.277648784818471484e+01,-1.144682967786208536e+02
-6.408804240505213912e+00,2.640545364614938961e+01,3.281425788665467280e+01,-7.652902509131491726e+00,-1.968365617039523485e+01,2.707460311247555751e+01,1.546715263018006965e+02,2.478998385842189691e+02,1.547324521859176514e+02,3.533189419825014710e+01,-2.815632039762214944e+01,-8.822535625336010412e+01
-2.550215198225102853e+01,2.182627365190319324e+01,4.732842563415410808e+01,1.835129640131248907e+00,-3.890967585252320760e+01,3.210944217268907153e+01,1.594591494405155174e+02,2.508070033344208127e+02,1.617437941669127213e+02,4.800458684476206628e+01,-2.396920845506091879e+01,-1.106360337286533593e+02
-5.176347252622729656e+00,3.773989706108527287e+01,4.291624431370773607e+01,-1.375204391101214085e+01,-2.406195741091656970e+01,3.793992165216570100e+01,1.648576485425753617e+02,2.615894344255815440e+02,1.703285457030193015e+02,6.095418723256236149e+01,-1.019120756495066082e+01,-1.074215452570677343e+02
3.966368351005706927e+01,5.416593079931116250e+01,1.450224728925377526e+01,-4.432646542648855359e+01,1.016930353087278860e+01,3.444622410185692729e+01,1.560357703709088923e+02,2.652412666672155979e+02,1.663083575317972986e+02,6.995292927440370079e+01,-6.011031981251962364e+00,-8.283845522829030017e+01
7.455759870544849832e+01,5.580295552479645949e+01,-1.875464318065230174e+01,-6.502940908681294729e+01,4.427681075604742489e+01,1.621251776426408497e+01,1.521541831315764739e+02,2.603799652712658599e+02,1.542475252869159874e+02,6.554361433463677145e+01,-1.604098584971954722e+01,-1.101527665039268413e+02
1.628653164215152316e+01,3.714707514171664826e+01,2.086054349956501497e+01,-2.662100375077871917e+01,-4.658917826689740416e+00,2.665650068658736416e+01,1.577061803526966060e+02,2.646496794006667983e+02,1.673318070012740861e+02,6.219840676850346739e+01,-1.089925542223202015e+01,-9.250212529686247365e+01
-3.768757356146943494e+01,3.689105042529345724e+01,7.457862398676294902e+01,2.842387352488192853e+00,-5.852460479065995003e+01,5.575328742631861445e+01,1.773110253965330401e+02,2.910446977412198066e+02,1.847818829161057863e+02,8.374312706467920009e+01,1.419816135345936203e+01,-4.564761750971772614e+01
2.494591644581484857e+01,7.951406074933485968e+01,5.456814430352022072e+01,-4.987864508675709629e+01,-1.480054937669364179e+01,6.453626104676872899e+01,1.816533844048154265e+02,2.997441352238994909e+02,1.908877428278246668e+02,8.061334015208545622e+01,1.995256652358767013e+01,-8.292184528888260786e+01
7.759671430554233496e+01,9.230020787981176511e+01,1.470349357426974812e+01,-8.265553449251704876e+01,2.897649174036560282e+01,5.337813838313813619e+01,1.758125738432694050e+02,3.008912100429201359e+02,1.949314098417247578e+02,9.117887864312207569e+01,2.067191206413238547e+01,-9.763727868224763995e+01
1.011324119036219429e+02,1.101084814642122183e+02,8.976069560590609342e+00,-1.057699374788585516e+02,4.358022312056948522e+01,5.696839862147414379e+01,1.845493516329416366e+02,3.251764484817699667e+02,2.069746481566273530e+02,9.560125713630979760e+01,2.583675615480390064e+01,-1.141818598779449587e+02
8.611343013743172037e+01,9.942524771242150905e+01,1.331181757499001428e+01,-9.042491332013712224e+01,3.389806995414685531e+01,5.627834334428249718e+01,1.838538579144617131e+02,3.354685370462758556e+02,2.133521813088996737e+02,9.403932099762094765e+01,3.045188743609688231e+01,-1.025675689874847762e+02
5.219232571475256321e+01,8.499939338230997521e+01,3.280706766755744042e+01,-6.616151660966535530e+01,9.649729957687872783e+00,5.645414103550519513e+01,1.837554097109655231e+02,3.432014170114834997e+02,2.251052490968233144e+02,1.065947290803759415e+02,3.949327026187440737e+01,-9.581314667745392910e+01
3.343483089488191240e+01,7.651331285845701302e+01,4.307848196357492299e+01,-5.244768737254272395e+01,-4.828059174435706424e+00,5.743320517721321750e+01,1.794172684173331334e+02,3.442878462836129643e+02,2.286957611233089835e+02,1.194183970094978946e+02,4.835341658177269863e+01,-6.837564596298057040e+01
2.468607520227104146e+01,6.373466591055174035e+01,3.904859070828035783e+01,-4.406502877833943188e+01,-9.588920449989664974e+00,4.908579728001708276e+01,1.706379713652043506e+02,3.432103881462688264e+02,2.246240068079196703e+02,1.039264613584436034e+02,3.785548214540790468e+01,-5.370674535957110152e+01
7.439723875967777644e+01,5.085062788641808140e+01,-2.354661087326006452e+01,-6.003526938984936834e+01,4.902900287390042422e+01,1.135020952200716415e+01,1.472844935596120024e+02,3.287658242992116584e+02,2.125931944968885716e+02,7.996786631172747661e+01,1.803879517051348813e+01,-1.276529567840308310e+01
1.633631966842854411e+01,4.696638770182325118e+01,3.063006803339444062e+01,-3.155601162198837883e+01,-9.528511691704645514e+00,3.644510065947187627e+01,1.723987999385211936e+02,3.575771362947326679e+02,2.355429576257041901e+02,1.108255275390914534e+02,4.269913045609090574e+01,-2.922669652194970169e+01
-4.720638428345558424e+01,4.195053282797998406e+01,8.915691711143551856e+01,2.633585289400020901e+00,-6.814550400728778357e+01,6.555375214994373323e+01,1.822749612939273050e+02,3.840389493055577077e+02,2.482620403013066266e+02,1.373615055066616719e+02,6.295109068903279592e+01,-4.082103998611588480e+01
4.483569896876598193e+01,5.537442655257599711e+01,1.053872758381018215e+01,-5.019131053850182411e+01,1.470830076866300118e+01,3.042852843294941323e+01,1.719904908980399796e+02,3.731938151349548320e+02,2.349873971325905586e+02,1.099768636990741584e+02,4.924729855742983631e+01,-5.360166570103650940e+01
1.943670463604430765e+01,4.865174078394165491e+01,2.921503614789765990e+01,-3.418932622124418685e+01,-4.924909484322305353e+00,3.879098876018920805e+01,1.758975548250581937e+02,3.888749254293163631e+02,2.537483475085608688e+02,1.206630908207436335e+02,5.490986891974537087e+01,-7.804881236943627698e+01
8.715363836379477647e+00,5.662681330514042344e+01,4.791144946876126909e+01,-3.281937245284868254e+01,-1.965397940873704030e+01,5.212842401876745413e+01,1.894791889296187435e+02,4.081317093503032538e+02,2.560184541720453808e+02,1.300125209562645523e+02,6.499403407471240257e+01,-6.781869560529246499e+00
2.276685202934695340e+01,7.020311784251030929e+01,4.743626581316359392e+01,-4.657948986173020955e+01,-1.482766247028547113e+01,5.629675589720338280e+01,1.887340580172235605e+02,4.182832305748935937e+02,2.769368577230873711e+02,1.430460662987339617e+02,7.448881039235718049e+01,1.455818699456566279e+01
1.787890532621911532e+01,5.561495570690418333e+01,3.773605038068514261e+01,-3.675126933153195097e+01,-9.957366008509280775e+00,4.668389618223898907e+01,1.837016577271036795e+02,4.259274060873335657e+02,2.787793063675557619e+02,1.457207104870458352e+02,6.884543216826799039e+01,-4.213226894471531381e+01
5.261692909033741472e+01,7.139944344828225553e+01,1.878251435794473068e+01,-6.192053879365008839e+01,1.448358546707871675e+01,4.274848257653107453e+01,1.841981583759103387e+02,4.416447114435206913e+02,2.919798887811637087e+02,1.535069993638746553e+02,7.762585181456834960e+01,-5.372037671873913212e+01
9.750584730846129844e+01,1.024939157576697397e+02,4.988068449208197919e+00,-9.741348369044386857e+01,4.385680415757833117e+01,5.389008095718607194e+01,1.949194986805921133e+02,4.601625539289869380e+02,3.073340903226952605e+02,1.817998590697449686e+02,1.012036523047114969e+02,1.952528555612547478e+01
1.326925753846590226e+02,1.335932719343191479e+02,9.006965496598671184e-01,-1.329934782843281198e+02,6.350895629124572395e+01,6.494925244719195234e+01,1.959894843223765690e+02,4.653762476367877525e+02,3.197052036235567130e+02,1.919506791486758743e+02,1.057411870497938224e+02,6.796705164589726067e+00
1.285282721423337478e+02,1.249839753154445816e+02,-3.544296826889373087e+00,-1.242208962834998971e+02,6.364245382383383287e+01,6.079884369387600884e+01,1.870077499737259075e+02,4.699394414123469801e+02,3.183529209236511974e+02,1.935866063395992001e+02,1.060175209234111549e+02,3.424662136180807437e+01
8.961213571064375571e+01,9.574485208787839952e+01,6.132716377234625149e+00,-9.023412443219491763e+01,3.932059095887888844e+01,5.092265190116717832e+01,1.871993431636456933e+02,4.672211704810935089e+02,3.165798060312529856e+02,1.909733563976508890e+02,1.116927492484302888e+02,4.214761831019309568e+01
7.442566919304576345e+01,9.952194547347798448e+01,2.509627628043239156e+01,-8.462222799882675872e+01,2.465296997968787096e+01,5.976308084964831124e+01,1.867295948409800133e+02,4.807802305001540617e+02,3.278415332272675755e+02,2.076503799740989678e+02,1.224677084760782009e+02,-1.946577052064212054e+01
1.124311384064238126e+02,1.367223963443506705e+02,2.429125793792713495e+01,-1.222846322763279545e+02,4.403221698088243841e+01,7.791106885201834586e+01,1.955342493144624143e+02,5.061363573008703156e+02,3.466821550948870367e+02,2.282014897255723440e+02,1.428379813904126934e+02,9.732590571467437002e+00
1.161753465137761339e+02,1.397228835898444572e+02,2.354753707606863244e+01,-1.256603605860720165e+02,4.382685420037850577e+01,8.149015762479010050e+01,1.895722070507077603e+02,5.057400458356466402e+02,3.440720834431426738e+02,2.278270973515174944e+02,1.383166562387295357e+02,1.753666497169600547e+01
1.446555980611375674e+02,1.385142966269478677e+02,-6.141301434189495367e+00,-1.392420255219878698e+02,7.292104064068215052e+01,6.610996539356489166e+01,1.838881985759769861e+02,5.060005675693304852e+02,3.405111941461975107e+02,2.115324536810486791e+02,1.429166708030598443e+02,9.587799351678933490e+00
1.591504407278089843e+02,1.481936990746660001e+02,-1.095674165314294513e+01,-1.536780894502055332e+02,8.259974024571737061e+01,6.620214684439586961e+01,1.885432324246661722e+02,5.086826952364802423e+02,3.471036034698674939e+02,2.189693153611692367e+02,1.420929110436415499e+02,3.587288605070931169e+01
1.304477716461320540e+02,1.248732810000139608e+02,-5.574490646118213988e+00,-1.251332569489796782e+02,6.802507044001686154e+01,5.732525026470542429e+01,1.889842090411517290e+02,5.195164210416089645e+02,3.601746621717683752e+02,2.363777507330601964e+02,1.556732884077213157e+02,1.946854610306727551e+01
1.168898912019312633e+02,1.169448633861494642e+02,5.497218421793514942e-02,-1.167698067212876936e+02,5.845279359906097483e+01,5.866345380322155734e+01,1.899287855619677146e+02,5.234680872644297551e+02,3.656911674771796470e+02,2.548131183040931944e+02,1.694248943155880625e+02,4.889281881137990382e+01
1.083040567817512141e+02,9.931725961756436050e+01,-8.986797164187136033e+00,-1.036588049522228516e+02,5.868771474809958733e+01,4.531306365575444772e+01,1.812633866788415276e+02,5.190416263591034749e+02,3.634232104331235291e+02,2.405440910987261134e+02,1.641745567987053391e+02,7.529022093378573288e+01
1.042440291393578207e+02,9.567947240979388823e+01,-8.564556729564177573e+00,-9.986342233276720037e+01,5.399638352636397087e+01,4.119132518170496127e+01,1.723348244188799185e+02,5.188443202787307200e+02,3.767879245573054163e+02,2.520014538575445897e+02,1.791120339816961291e+02,6.860877900504921456e+01
1.580843004662200997e+02,1.250922851171623051e+02,-3.299201534905788691e+01,-1.391405673954861015e+02,9.310684869646475192e+01,4.601954735423472442e+01,1.725882223435344827e+02,5.259644459238151057e+02,3.849020579275791647e+02,2.641490617068792517e+02,1.946139816499006656e+02,7.157108333154756963e+01
1.868164039250955000e+02,1.582413995052413895e+02,-2.857500441985408912e+01,-1.726141637697019178e+02,1.076776747865534531e+02,6.470847534014330904e+01,1.721682705434308218e+02,5.346582640690462540e+02,3.914158722215678949e+02,2.858440577536812839e+02,2.103594584269150687e+02,5.862314450652601039e+01
2.052918309858402779e+02,1.662367523625136982e+02,-3.905507862332637359e+01,-1.859100735660758232e+02,1.221370696217744722e+02,6.341969305832371617e+01,1.663534220378768396e+02,5.404416145676341330e+02,4.005797020144697740e+02,2.869741416722447411e+02,2.112854722433990560e+02,7.302759349219117269e+01
2.138945994346752855e+02,1.741353128583641023e+02,-3.975928657631095575e+01,-1.941662888389057002e+02,1.267882274215527474e+02,6.703705214326618034e+01,1.652551080433124469e+02,5.448216272594393104e+02,3.979663564294222056e+02,2.914930564587150457e+02,2.165475923096784925e+02,7.096087907541537732e+01
1.935199087970846961e+02,1.533358522286740708e+02,-4.018405656841046181e+01,-1.735277273931028219e+02,1.168274279704073990e+02,5.650473010015164022e+01,1.595263359185395302e+02,5.400845553941653634e+02,3.894334715703360530e+02,2.848769801963146051e+02,2.162247074507088485e+02,4.834863948651567256e+01
2.127891713199507819e+02,1.774965417643077501e+02,-3.529262955564300341e+01,-1.927133160832756573e+02,1.216002529110966179e+02,7.113970828014214476e+01,1.446049798892179865e+02,5.475583192065014373e+02,3.958799395487648667e+02,2.970511787829049126e+02,2.299484312248285391e+02,1.381606621469043148e+02
2.376336710929782328e+02,1.881382179744335872e+02,-4.949545311854477347e+01,-2.128026219706673601e+02,1.411466963103335104e+02,6.701457364387421478e+01,1.498759778398025730e+02,5.534848304815965321e+02,4.136903072386957660e+02,3.191943603214417635e+02,2.434265955505792078e+02,1.512258123739325697e+02
2.532598419779272376e+02,2.044549001878529850e+02,-4.880494179007455813e+01,-2.287117432101321413e+02,1.510667997011781551e+02,7.800230619332779725e+01,1.410343979425134648e+02,5.477180378776075713e+02,4.093700118458554584e+02,3.228995531626903244e+02,2.473492107884855784e+02,1.125544793771086631e+02
2.641952454400166062e+02,2.160708414903587027e+02,-4.812440394965817347e+01,-2.399805816093254407e+02,1.561919446588374001e+02,8.412583066240765106e+01,1.323763769419730920e+02,5.336227947008919728e+02,4.120019104105586507e+02,3.183903599578385410e+02,2.469711647769676119e+02,8.541372573735881701e+01
2.553716473632385942e+02,2.027839064893901195e+02,-5.258774087384860252e+01,-2.265363042133266447e+02,1.515564743848445914e+02,7.516627955459149746e+01,1.283676758726205662e+02,5.237707309394103277e+02,4.010756801452201330e+02,3.201789174023843998e+02,2.522067334444434721e+02,9.822534900588260598e+01
2.606015704436505871e+02,1.982540206318370224e+02,-6.234754981181348654e+01,-2.269753131790023417e+02,1.614694701839968900e+02,6.546924992450693992e+01,1.335624007343870403e+02,5.260928822872035653e+02,4.044621162762278459e+02,3.275937058067781322e+02,2.531685472144565949e+02,9.123599760210507270e+01
2.016643094628894630e+02,1.779502607459414207e+02,-2.371404871694775451e+01,-1.874480294605228323e+02,1.126652830788824673e+02,7.453708798927014811e+01,1.234436424395410370e+02,5.299402945211617180e+02,4.013494183818140186e+02,3.299118657562169119e+02,2.690140355353462382e+02,8.777615381837998143e+01
1.860407061302328202e+02,1.616802736569549666e+02,-2.436043247327753036e+01,-1.715637866627120331e+02,1.027286613814327154e+02,6.847532189053275431e+01,1.176641468894617617e+02,5.210612978493418268e+02,4.056959862755628592e+02,3.408840190373309156e+02,2.700019353152486588e+02,1.214751927605075821e+02
1.701660945396134252e+02,1.500466029808426356e+02,-2.011949155877051965e+01,-1.602585210619571114e+02,9.267610673489485862e+01,6.236715988429872937e+01,1.116783716167119422e+02,5.107324444138295121e+02,3.932913943560545817e+02,3.258735196362127340e+02,2.655053916835701671e+02,1.681468281270661009e+02
2.033099912268801290e+02,1.632687206203523260e+02,-4.004127060652762538e+01,-1.833940693496595031e+02,1.216649253351714748e+02,6.154750293490790369e+01,9.613835070415713346e+01,4.961440135748458715e+02,3.846478664230958771e+02,3.191613985348072333e+02,2.651232030604124930e+02,1.652046220199509605e+02
2.468393360123434093e+02,1.921255323989249462e+02,-5.471380361341844178e+01,-2.170609731585099667e+02,1.507863434372087283e+02,6.631747508757324283e+01,9.578042313500846205e+01,4.791342582330965456e+02,3.763095899033748424e+02,3.214317550377523958e+02,2.641096355708867804e+02,1.479479367654820976e+02
2.667690675691054025e+02,2.221491651129080083e+02,-4.461990245619753637e+01,-2.419441319686953022e+02,1.557208352010825081e+02,8.647569725120065698e+01,1.205050902342079695e+02,4.996540396220458433e+02,3.988786725181303154e+02,3.434415436528972236e+02,2.921308786917985003e+02,1.271228588702277591e+02
2.678343060965270297e+02,2.384293958091224113e+02,-2.940491028740488488e+01,-2.529908027200272898e+02,1.462112497970154834e+02,1.022648517647186566e+02,1.214014234831285677e+02,4.890181656102976717e+02,3.945096869613964827e+02,3.373168945936467935e+02,2.959980535407808020e+02,8.855533906725895577e+01
2.691406593808849834e+02,2.305855936416762688e+02,-3.855506573920896329e+01,-2.497087913035854001e+02,1.514306325212973263e+02,9.373441465549657892e+01,1.127763647617380229e+02,4.701103321606236136e+02,3.825437026163105543e+02,3.377088196157562834e+02,2.907489160964277630e+02,1.345149314428496723e+02
2.896921681863717595e+02,2.222802161823509550e+02,-6.741195200402084708e+01,-2.558766783799818256e+02,1.761153826982090322e+02,7.505689885789340110e+01,1.039571837948464577e+02,4.505956096599892930e+02,3.717292781942207398e+02,3.249598984609904164e+02,2.814097842552808970e+02,1.422140371168033255e+02
2.753952008726598137e+02,2.080661265046730932e+02,-6.732907436798666367e+01,-2.417072929807286528e+02,1.713443126625820128e+02,7.030915288704694888e+01,1.092216497076994699e+02,4.334840514710468256e+02,3.606088807042199278e+02,3.325152339534657244e+02,2.824619571712841548e+02,1.203372398001403809e+02
2.309746821780394441e+02,2.170522133452880666e+02,-1.392246883275109681e+01,-2.216449148366613429e+02,1.224178593424227870e+02,9.896528088175745097e+01,1.235410902662520130e+02,4.373699937708356629e+02,3.673568305677720787e+02,3.300745371516923115e+02,2.935052317611087460e+02,9.720309319514184665e+01
2.444472690990046431e+02,2.153740424479711635e+02,-2.907322665103317405e+01,-2.300497993622551292e+02,1.367308823431839073e+02,9.295185466340116420e+01,1.128746041165902341e+02,4.187074457670489096e+02,3.522132722980294375e+02,3.166981513539916477e+02,2.847683560610847167e+02,1.162623994105872640e+02
2.235491268538744407e+02,1.939157416307791948e+02,-2.963338522309503986e+01,-2.088870840430635099e+02,1.265768080095901951e+02,8.198103433136384410e+01,1.068400766627007101e+02,3.985441993123174029e+02,3.397575328007527560e+02,3.211686238467138423e+02,2.753726081960508623e+02,1.142776596876452118e+02
2.078715305337246662e+02,1.827003519861014524e+02,-2.517117854762310003e+01,-1.929581833575543044e+02,1.165286414128340624e+02,7.626596350917317579e+01,9.611005331725844769e+01,3.741011177734074522e+02,3.163641324285769656e+02,2.948272408472721509e+02,2.602874983193269145e+02,1.213097830355591498e+02
1.685561971264074259e+02,1.676490307742864161e+02,-9.071663521211066339e-01,-1.681301793534213402e+02,8.231740637329433241e+01,8.099732268679385072e+01,9.081206049664903901e+01,3.521354898418939570e+02,3.127841429685403227e+02,2.969648298984677126e+02,2.543152059602223005e+02,1.042471213942977926e+02
1.496473482046446577e+02,1.538054616266313985e+02,4.158113421986522340e+00,-1.492188351168379938e+02,7.277682247373820701e+01,7.670794927250142337e+01,1.008716518923647385e+02,3.433475273579190912e+02,3.059892354188652916e+02,2.944707384823372536e+02,2.529938322296144122e+02,6.887926086275588489e+01
1.558039904348698599e+02,1.506314222635463409e+02,-5.172568171323748132e+00,-1.506400493978160569e+02,7.807199171631933154e+01,7.293150469257737711e+01,9.690698648571569151e+01,3.180987572886169232e+02,2.869634626625625060e+02,2.639079858331426180e+02,2.324353871812475063e+02,1.181245469323188217e+02
1.670232322496784718e+02,1.477198955018314450e+02,-1.930333674784719022e+01,-1.572153752681582262e+02,9.316724927703342019e+01,6.436858538050486800e+01,8.833859542837853951e+01,2.943806981053575100e+02,2.652907828788963798e+02,2.545780997167068449e+02,2.223249613941842142e+02,7.123482921874480667e+01
1.485752352657800373e+02,1.443191226465915804e+02,-4.256112619188474611e+00,-1.438915087465710485e+02,7.395748833184600812e+01,7.008808650226139036e+01,9.423610300983570198e+01,2.847164364694705228e+02,2.545800425999919128e+02,2.516917559349076328e+02,2.228066785464051236e+02,3.969809780476018091e+01
9.025470095735103371e+01,1.300972603284906199e+02,3.984255937113967150e+01,-1.101448066604286282e+02,2.517344042246783786e+01,8.490019589308631964e+01,9.469146225658046490e+01,2.725692352588686163e+02,2.484581343152656245e+02,2.593827154570930134e+02,2.239469189169913932e+02,1.054678802729345080e+02
1.041708931151201938e+02,1.390447927416840059e+02,3.487389962656394005e+01,-1.192333682217835644e+02,3.461627294447429648e+01,8.434885878035801454e+01,9.928571957075911314e+01,2.569832027502314986e+02,2.357762297542242891e+02,2.375419157694182104e+02,2.106728553842328608e+02,6.759755326635189476e+01
1.076269753562927605e+02,1.421861693697948681e+02,3.455919401350219289e+01,-1.226041883290448453e+02,3.407722394353263695e+01,8.816571999951007399e+01,1.032386810411067586e+02,2.480689200503558425e+02,2.304183381805179067e+02,2.242198773133728196e+02,2.068549674728701007e+02,8.182446501979030984e+01
1.109398618936441068e+02,1.353026732638659553e+02,2.436281137022190890e+01,-1.208387834675779402e+02,4.329573098156333089e+01,7.722842942165156899e+01,1.068943966694374268e+02,2.327143200686577416e+02,2.179133852342025364e+02,2.286541766509479032e+02,1.925536675000398930e+02,3.608199085427575881e+01
1.342579229454031235e+02,1.386790290139206263e+02,4.421106068517429044e+00,-1.341461580792713164e+02,6.250731696046000252e+01,7.149213249544285986e+01,1.107131843576806318e+02,2.130445104360907465e+02,1.992943505234980250e+02,2.070776536902718306e+02,1.822647110525119274e+02,1.890956412737618919e+01
1.097076984885853648e+02,1.284928852798826142e+02,1.878518679129708246e+01,-1.191337586597074534e+02,4.305955015705044531e+01,7.127112737351851024e+01,1.199793172308626197e+02,2.104959559329843160e+02,2.004711057316343101e+02,1.944219233695759783e+02,1.810615233761025991e+02,4.591309350693253322e+01
1.008049128978999960e+02,1.146709973154495401e+02,1.386608441754929544e+01,-1.052348944530398143e+02,4.350008440567488321e+01,6.200435503627238631e+01,1.202466404654844752e+02,2.016486354761454720e+02,1.935802492147696228e+02,2.015520104870839475e+02,1.698852217106189926e+02,-4.043601396683933480e+00
6.818071440426243157e+01,9.690354158040651100e+01,2.872282717614384140e+01,-8.240654757862736801e+01,1.973822275863892628e+01,6.302629901825081049e+01,1.163004767020545103e+02,1.812858758021105530e+02,1.842805678576200705e+02,1.855661762870867051e+02,1.541648672048258675e+02,-8.537989366098049260e+00
3.562876965447453870e+01,7.940292161569867346e+01,4.377415196122401397e+01,-5.491894263295470324e+01,-4.089557616382935912e+00,5.931774319009457486e+01,1.126709132949514327e+02,1.625161137008786909e+02,1.675291091977114775e+02,1.567546452167817392e+02,1.440848726985144026e+02,1.762909078425407472e+01
4.154950346495687796e+01,8.092102009127067674e+01,3.937151662631383431e+01,-6.111611296021954587e+01,1.052247964528668644e+00,6.020621653328068135e+01,1.137658687741236179e+02,1.578375545510069173e+02,1.569195117396649266e+02,1.539927195388013388e+02,1.349007106895718664e+02,7.379014657761067042e+01
4.649078418909620325e+01,8.136373595341326848e+01,3.487295176431722155e+01,-6.145060649185988666e+01,5.767255593564263982e+00,5.560475270196656083e+01,1.240512481855387392e+02,1.457947431212363654e+02,1.411586193215230765e+02,1.569656760526867743e+02,1.264021613291824195e+02,4.188842029407431511e+01
1.626273158126611662e+01,7.568516670828954318e+01,5.942243512702363972e+01,-4.603341838096250171e+01,-2.404909849921650533e+01,6.493298379948271304e+01,1.238068318851762939e+02,1.351533735371702676e+02,1.334501422218544349e+02,1.352633302466099394e+02,1.181092733856138466e+02,1.377563259149662755e+01
4.883052045040319200e+01,9.346968930592366576e+01,4.463916885552065850e+01,-6.884315359598028294e+01,-3.488835773637419813e-01,6.883420716692945973e+01,1.277603574414909247e+02,1.262405521935040582e+02,1.232439390153780749e+02,1.268849412082124388e+02,1.143353159011936668e+02,-1.588757487370222776e+01
4.234029872364057212e+01,8.169606733827862399e+01,3.935576861463812293e+01,-6.217463316233128268e+01,-9.252257065169124939e-01,5.791048492078503074e+01,1.216156537580015424e+02,1.157041662504042847e+02,1.106994692212644367e+02,1.020024129218654139e+02,9.512437822274060295e+01,-3.232049160565341595e+01
7.182696196893845197e+00,7.040231227265807945e+01,6.321961607576414366e+01,-3.647344412492557808e+01,-3.041727839685389156e+01,6.674846361738580924e+01,1.204852868275693254e+02,1.056935987525430818e+02,1.017486057297253836e+02,1.046998876422303510e+02,8.474176375953601337e+01,-6.674432345623828589e-01
7.184103027265021701e+00,6.504176947464394232e+01,5.785766644737876163e+01,-3.615287597778849715e+01,-2.529270730551989388e+01,6.152607637842510968e+01,1.247958629381807185e+02,1.030438550966367188e+02,1.028203477441772691e+02,1.016414945286237668e+02,8.341495618065694373e+01,-2.731005705440915676e+01
-6.453170230067668989e+00,4.139072696753211034e+01,4.784389719759961679e+01,-1.741300560220922122e+01,-2.955868916551253989e+01,4.236529400547372148e+01,1.152466830394286461e+02,8.436978177564635928e+01,8.120989561179355576e+01,8.423677783013171450e+01,7.701183678723170090e+01,-3.329976581318665296e+01
1.468874356400074355e+01,5.772552962607417726e+01,4.303678606207335378e+01,-3.363685520362454895e+01,-1.417049673554864064e+01,4.816948522478296013e+01,1.210443060016888523e+02,8.351671714619232034e+01,8.164103048179855193e+01,8.283124593427197624e+01,7.100380159050389750e+01,1.313696568371207629e+00
2.606927937126460648e+01,6.949524081599754766e+01,4.342596144473297670e+01,-4.518600213603217242e+01,-8.703049527469381985e+00,5.420121804973294388e+01,1.272105412163258649e+02,7.944000352085987515e+01,8.444113849618139511e+01,8.333993130083077006e+01,8.047749986833831315e+01,-7.004753573523800014e+01
-7.101399515761293912e+00,5.155022790554163237e+01,5.865162742130306839e+01,-2.210052708559707213e+01,-3.292024430005372437e+01,5.516345689276090525e+01,1.186251833749038411e+02,6.510052394503391326e+01,7.391376410578780565e+01,7.582759672770369264e+01,6.651784393127880435e+01,-4.802784145807962091e+01
1.726099798222569248e+01,5.209650224510544092e+01,3.483550426287992252e+01,-3.219391172853048033e+01,-8.833367377136539744e+00,4.094513015035698800e+01,1.143623302176706744e+02,5.316247742024498990e+01,5.337190300740380877e+01,5.944457137956680981e+01,4.838958713727787142e+01,-5.559884351599413321e+01
1.620232365283643716e+01,4.652481506161363001e+01,3.032249140877734916e+01,-3.141495512046668281e+01,-9.531106105062738365e+00,3.578879628065891438e+01,1.141821427505128099e+02,3.770828562150867214e+01,5.061711716529058691e+01,4.762810928116034148e+01,4.507509362871714131e+01,-5.944331099531068219e+01
-8.796451380768925787e+01,5.949340218109855982e+01,1.474579159887879030e+02,1.410657751481072175e+01,-1.177154483330985926e+02,1.032405747536934513e+02,1.620708886639748982e+02,8.736463973667338223e+01,8.923511408949717350e+01,9.297214919296010294e+01,8.525142437858691835e+01,1.813163073141129900e+01
-4.084348367713010219e+01,6.235119268892601241e+01,1.031946763660560435e+02,-8.472447832976499171e+00,-7.443474370604801038e+01,8.258836614683826838e+01,1.510144927251733122e+02,7.678765536509426681e+01,7.666581759543250030e+01,7.292461227294008097e+01,7.088015724431436126e+01,6.541142337289472586e+00
-1.256659019398752974e+01,4.121610319575972881e+01,5.378269338974704539e+01,-1.201292098715135559e+01,-3.557088039822116343e+01,4.743782099671661001e+01,1.400550505715773966e+02,5.694204926836945901e+01,5.300944857269232102e+01,4.622671767498613349e+01,5.064350346933401426e+01,-5.667195116465569171e+00
2.171947212654572912e+00,4.060977308266763686e+01,3.843782587001279438e+01,-2.143972794085003741e+01,-2.052639150753638830e+01,3.717047572188085525e+01,1.345134796434480791e+02,4.931841074417688020e+01,5.398902139990873650e+01,3.813372379605492313e+01,4.919771282970238957e+01,-6.149086091120901898e+01
-2.592392978134653703e+01,4.123971843103240076e+01,6.716364821237870331e+01,-7.608922214147252561e+00,-4.895200026155423245e+01,5.196409042247672261e+01,1.346353536726797131e+02,4.031610454045449643e+01,5.180898027935253936e+01,5.474947838301559244e+01,4.757054101778310695e+01,-6.740939380595185071e+01
-5.339530511702396609e+01,2.823300753141973374e+01,8.162831264844361101e+01,1.514968595257042949e+01,-6.750635861303032925e+01,5.273094413827940485e+01,1.354999206932686775e+02,3.940997112382730450e+01,4.730816248606521413e+01,4.351859634625076012e+01,4.151181609730506494e+01,-1.326622222749381486e+01
-3.703775514478379449e+01,3.026006333162370510e+01,6.729781847640761328e+01,3.548931361842659449e+00,-5.218981730149736364e+01,4.896436544337493046e+01,1.221507609285799560e+02,2.557590405517116494e+01,3.059309804948258460e+01,1.966186526231522791e+01,3.636726718571922845e+01,-8.954850470449892441e+01
-2.144922015197837339e+01,2.704447894775119821e+01,4.849369909972987358e+01,-2.666380432330655026e+00,-3.745213437786760124e+01,3.538778566630769973e+01,1.331517804675979733e+02,2.105897303486692707e+01,3.476620210713542747e+01,1.714846212450743579e+01,3.225543213360646888e+01,-7.246313217154232689e+01
-3.141045284054358433e+01,2.772481673285509629e+01,5.913526957339904300e+01,1.895227436102664864e+00,-4.775743296648133196e+01,4.089829734112733917e+01,1.338856054542233096e+02,2.387243336996445464e+01,3.384778974770335225e+01,3.021095485279919046e+01,2.889628138766659760e+01,-4.101474177331665771e+01
-5.222125285411632234e+01,1.252412122341624645e+01,6.474537407753284413e+01,2.224207961208049156e+01,-5.851591462304507729e+01,3.598654188498635875e+01,1.387201343631291195e+02,2.807186233363784922e+01,3.121230225186894103e+01,2.343653489331539319e+01,2.571295609219714962e+01,-5.945596405734357859e+01
-6.387439546819238956e+01,1.580738886017176092e+01,7.968178432836424463e+01,2.390567964352393915e+01,-7.422707736026281111e+01,4.505930680276151890e+01,1.379076273739843543e+02,2.903579886381092834e+01,3.575933073555034269e+01,2.495693582868940652e+01,3.181140153780279434e+01,-6.475883774752188060e+01
-2.186473391120741905e+00,6.257487949436861641e+01,6.476135288548923086e+01,-2.791508353018341282e+01,-3.589653701117268270e+01,6.348058221978654814e+01,1.463830501490764675e+02,3.800709877218926636e+01,4.272523977594277511e+01,3.417226151410424251e+01,4.183382544346049059e+01,-8.605384847993387609e+01
-3.725198570405008525e+01,1.695086963848058303e+01,5.420285534253039827e+01,1.245767678759942321e+01,-4.569034484646581262e+01,3.308071561091432500e+01,1.255752599886704246e+02,2.785046290666022273e+01,1.899915255699907490e+01,1.710666993888330722e+01,2.638252940167141603e+01,-8.363757409039716606e+01
-5.646458792335613452e+01,1.620432933796567454e+01,7.266891726132151064e+01,2.251593246293721506e+01,-6.452296700189970124e+01,4.209492400487116726e+01,1.296353644895555988e+02,2.983979464526577274e+01,2.960849103881487920e+01,2.346508903498524390e+01,2.966934835503239398e+01,-1.004997243454831306e+02
-1.601399230223979231e+01,6.061228100628550663e+01,7.662627330852507157e+01,-2.225419050805339438e+01,-4.872497905699301413e+01,6.639508931967303340e+01,1.442307889873590625e+02,4.018831245605469604e+01,4.680754233664457331e+01,3.502097955060639833e+01,4.741707934884509257e+01,-9.187453234719733075e+01
-4.819955422340017748e+01,2.311827266633458322e+01,7.131782688973468964e+01,1.510727314314122260e+01,-6.218507209437791516e+01,4.746883602527768886e+01,1.254680268781911963e+02,2.451397665225805511e+01,3.245029558349209253e+01,9.041269716138659263e+00,3.151006124934175290e+01,-6.707857309320007744e+01
-6.595871023186303717e+01,-9.022284851124702243e+00,5.693642538073846282e+01,3.765044742599388172e+01,-6.146069116430550139e+01,2.414649322768008943e+01,9.747035006459609008e+01,8.772730526824634723e-01,1.083737206347410265e+01,-1.758288357134123459e-01,1.172219944662089119e+01,-6.040483873024687966e+01
-1.143020329102286503e+01,2.468313596938194188e+00,1.389851688796134255e+01,7.053412315480789729e+00,-1.269921117656360110e+01,5.797770078536988336e+00,9.392290254968915519e+01,-8.462260323540029106e+00,1.019493285200483967e+01,-1.721808946951755104e+01,2.807382990936384104e+00,-6.764699355727103125e+01
2.233484022060166652e+01,5.207513658611684093e+01,2.974029636551553324e+01,-3.715015571763034075e+01,-3.746253560143574468e+00,4.080430310429594698e+01,1.094578151371008090e+02,9.134037548713958898e+00,1.916072123515807846e+01,-3.970290803275505986e+00,2.398017031605414928e+01,-5.072510467665021139e+01
-2.795893278757514366e+01,6.631809935759548580e+01,9.427703214517093500e+01,-1.678292384448286967e+01,-6.359450699829297093e+01,8.007462623071850771e+01,1.388744340561711113e+02,3.792299679616362340e+01,4.595133061821578480e+01,1.873413284762856890e+01,5.022890477543856491e+01,-3.003298746206807124e+01
-4.951569698166518663e+01,4.535151058143355840e+01,9.486720756309888714e+01,4.397604302751379812e+00,-7.464856445239519189e+01,6.985196630318699818e+01,1.333266262789257439e+02,2.930364828014653611e+01,4.574079380928857574e+01,2.040386953471121601e+01,4.669463852445157670e+01,-5.970982752785229764e+01
-5.131830890065802464e+01,1.409882659981455433e+01,6.541713550047249726e+01,2.089201635917742195e+01,-6.080015458370723991e+01,3.956534143868952214e+01,1.076884365303199758e+02,9.087263435425905200e+00,1.371443609594896529e+01,-9.379626881921081960e+00,2.260597752489449164e+01,-4.202379696892549532e+01
-5.705702991323841644e+01,7.433129012277747805e+00,6.449015892551587115e+01,2.712110195444832783e+01,-6.074421345515627024e+01,3.346863528123837739e+01,1.209571006257082928e+02,1.840964517697992875e+01,2.409185562709440021e+01,-7.021318263255487579e+00,3.149276240938864646e+01,-1.532357034839205134e+01
-5.173325723824321187e+01,6.488502935487731271e+00,5.822176017373056567e+01,2.256756323076859161e+01,-5.493596257989467802e+01,3.246323679400484252e+01,1.101873449820731565e+02,1.047038139033376503e+01,1.503767776664295575e+01,-1.550946982131127783e+01,2.486279149888355988e+01,-3.718288507238824536e+01
-6.477072160993074590e+01,1.162061569046847254e+01,7.639133730039887382e+01,2.661576685699161970e+01,-7.298120330012844192e+01,4.179488230969098339e+01,1.147905105221750119e+02,1.081817384160632756e+01,1.253505876125225171e+01,6.819192161483913495e-01,2.777206640169339025e+01,-5.302844400232000766e+01
-6.749209619445764474e+01,1.298976009236154638e+01,8.048185628681902415e+01,2.981088674775989134e+01,-7.640298718037860226e+01,4.699841315112835360e+01,1.153578075277412012e+02,9.559034861069202194e+00,7.783218802281191451e+00,-5.966127571061480950e+00,1.657655328914039572e+01,-7.215639582729143342e+01
-5.096835961559718697e+01,3.417187422237804029e-01,5.131007835782102688e+01,2.790671577240617296e+01,-5.113991256890504644e+01,2.358142123861050976e+01,1.068152568006261731e+02,-4.432685792865846075e+00,-4.129829289834728634e+00,-2.987645598005178726e+01,1.136196565499275657e+01,-8.006526082862431792e+01
-6.961978871780303280e+01,-1.241624602801968358e+01,5.720354268978362455e+01,4.114756370174710298e+01,-6.587709435833885152e+01,2.000599634181094189e+01,1.131284958875983619e+02,9.206790982073131957e-01,1.789795125302409140e-01,-2.728959406495143369e+01,1.228286571742334132e+01,-1.067284357985195129e+02
-6.524984573767576990e+01,-2.598440419200828799e+01,3.926544154566789757e+01,4.567410663806892046e+01,-5.229919306788794131e+01,6.528129157540821126e+00,9.961787585753539531e+01,-1.055384149996159060e+01,-1.507255937587672889e+01,-3.820673880501954045e+01,-5.065347165386613337e-01,-8.481216247068824998e+01
-5.720956630755097194e+01,-3.100778703318039931e+01,2.620177927437098475e+01,4.651201881137506433e+01,-4.418892924256129362e+01,-2.637802389111128853e+00,8.050291211820710657e+01,-2.052553515121179473e+01,-2.222356334047958626e+01,-5.427594383061020977e+01,-1.306065834650685709e+01,-8.354000543857694083e+01
-3.996947604749565386e+01,-7.919029309576023579e+00,3.205044673791990562e+01,2.382856667456845656e+01,-3.603965503966362860e+01,1.179853162678578826e+01,8.978177592314706601e+01,-1.427164009718980608e+01,-1.739335852740048693e+01,-4.265857302728591094e+01,-1.778598823422236741e+00,-9.851951909804547824e+01
6.876487551019035749e+00,3.401066729962768420e+01,2.713417974860868043e+01,-1.815406957231821394e+01,-1.257419899616336600e+01,3.037584775816808147e+01,9.834165036505496005e+01,-2.253691666097417112e-01,-5.748244440052037163e-01,-3.823903952978139387e+01,8.345972207077412719e+00,-9.059772884999968312e+01
-1.349881881508001946e+01,4.184373990424561640e+01,5.534255871932541737e+01,-1.186054528857876100e+01,-3.683957955186667732e+01,4.854345604898085753e+01,1.114991367228691388e+02,1.392097012147301172e+01,4.845293813965522389e+00,-1.646374742367538957e+01,2.203388832096276673e+01,-8.349143311030918824e+01
-4.707413982730325586e+01,3.580906464718737681e+01,8.288320447449027029e+01,8.015337303159876470e+00,-6.493820717811007626e+01,5.702307524183093790e+01,1.249193146462901751e+02,2.531208011791626333e+01,2.002365763544584709e+01,-1.051332653862991151e+01,2.498561662079585943e+01,-5.667958927887960385e+01
-6.479131308453486326e+01,4.072291138011690492e+01,1.055142244646514342e+02,1.206876372927567864e+01,-8.754666837392008460e+01,7.091726581901922088e+01,1.292942456269238107e+02,2.540453775365059386e+01,2.220279692684207262e+01,-4.310686841955650550e+00,2.767860151215452902e+01,-7.754636197560833466e+01
-5.269727537486926394e+01,3.216439011898578570e+01,8.486166549385485780e+01,1.037818522639732777e+01,-7.118403203766375498e+01,5.634144920101799414e+01,1.199325668675130458e+02,2.391029717984427094e+01,1.240720607744422388e+01,-2.090568788730794836e+01,1.629973200437191849e+01,-4.797770786050288194e+01
-5.072045021444579760e+01,3.408646344370482950e+01,8.480691365815063421e+01,8.462230111699771129e+00,-7.019206242778264482e+01,5.720135582529949403e+01,1.210896841457884676e+02,1.954095610962236407e+01,1.017462175949124514e+01,-1.562593581899071715e+01,1.587359966418161861e+01,-1.686881031242992535e+01
-5.961989511953062504e+01,2.626251666492813897e+01,8.588241178445895230e+01,1.680195246641877205e+01,-7.520822620759395249e+01,5.367830254891738662e+01,1.079422009878659878e+02,1.025859095408616639e+01,-5.010186184951658461e+00,-2.276282048606847042e+01,7.063396342153270169e+00,-7.274315276410924014e+01
-6.997736071862030371e+01,2.262545513074123704e+01,9.260281584936178945e+01,2.617142225683532075e+01,-8.133014979771290598e+01,5.505339355439862459e+01,1.092229101100531068e+02,8.686901518823910706e+00,-6.201691615146920356e-01,-3.353112435156622695e+01,9.053747013210017514e+00,-4.582337598605798235e+01
-9.622136962194694831e+01,3.204057659221895449e+00,9.942542728116906403e+01,4.647716019099662788e+01,-9.787176462242157982e+01,5.107412614838936804e+01,1.049424549529923496e+02,1.359226899864415650e+01,-2.709004674337125440e+00,-3.962798553804625357e+01,1.588205793171489688e+00,-8.835104791878229946e+01
-1.279025875922676079e+02,-3.691705497418998050e+01,9.098553261807769843e+01,8.230484745212083908e+01,-1.094827007678949400e+02,2.676713320436368093e+01,8.999924040784402735e+01,5.819195795822420525e-01,-1.233055693306901190e+01,-5.220305436138480104e+01,-1.132043671013765263e+01,-7.886117372898878841e+01
-1.299468345914652900e+02,-2.902051076682644748e+01,1.009263238246387289e+02,7.934566386087584533e+01,-1.154510958757116583e+02,3.576291088150476583e+01,8.890062050549769879e+01,1.725642186354003904e-01,-1.490251086912165235e+01,-5.253082106606115076e+01,-5.941160171117052968e+00,-9.045469733411411539e+01
-6.739044955829982086e+01,-6.571156141358887481e+00,6.081929341694068825e+01,3.686186133040070700e+01,-6.653012111609811541e+01,2.464432958582929700e+01,7.764730959576492353e+01,-1.003858339920740228e+01,-1.922038571389098394e+01,-6.490472847447522042e+01,-2.152492060927291817e+01,-5.899044121197971435e+01
-8.171916498736797152e+00,2.140397456987839675e+01,2.957589106861491146e+01,-6.671788425595717165e+00,-2.127607532156656589e+01,2.317474666745577849e+01,7.630717486748197587e+01,1.234028228147366457e+00,-1.389817098131836914e+01,-6.395124609270321514e+01,-1.869802641130097953e+01,-7.615725465590689680e+01
-6.191377520306035720e+00,4.563365163191281226e+01,5.182502915221864015e+01,-1.725364915291900303e+01,-2.896170902209277997e+01,4.652930290430257543e+01,9.513746878922205497e+01,1.085185501983177225e+01,2.741198233895151937e+00,-4.330861840688388043e+01,-6.456018206830573369e+00,-4.827124145204516736e+01
-2.805414882206035543e+01,5.153481763109800085e+01,7.958896645315830654e+01,-9.200501308788116006e+00,-5.622328022351761234e+01,6.582394554124736885e+01,1.100022887361623560e+02,2.373878196059457935e+01,1.227173758846230456e+01,-1.618322440363858306e+01,6.353254929136031848e+00,-7.728414188985225053e+01
-4.549051397245091977e+01,3.870967793077329588e+01,8.420019190322439329e+01,3.524505418983046923e+00,-6.482880620483675216e+01,6.163867872068583154e+01,1.061856683375461472e+02,2.406514710055623851e+01,1.478509067341292926e+01,-2.566349785782203696e+01,1.067875659753951467e+01,-6.570490328028883198e+01
-7.886648306348938320e+01,1.133937458760694383e+01,9.020585765109662191e+01,3.632086691390624367e+01,-8.454649788891336470e+01,4.836819766679879251e+01,1.076935677723403870e+02,1.961827187681715756e+01,9.331892598252629512e+00,-3.280746323395517550e+01,1.868296714768260536e+00,-6.791118186340645480e+01
-9.923968936444670419e+01,-1.666451908144330218e+01,8.257517028300367201e+01,6.044860962797399395e+01,-9.093989188410378688e+01,3.038943221758209745e+01,8.956066203617764643e+01,8.389606754626468543e+00,-5.720050228172698148e+00,-5.324656148202355865e+01,-1.066558032859053817e+01,-8.492315143931301691e+01
-1.062916994116941396e+02,-5.553976387580146934e+01,5.075193553589286921e+01,8.089063075915855450e+01,-7.856417085439139214e+01,-2.632546616201211886e+00,7.078145121677218299e+01,-1.578631060883030557e+01,-2.230680682882834276e+01,-6.896711312136177696e+01,-2.771723200891398164e+01,-7.377572601666005880e+01
-6.988024373241415788e+01,-1.260521484420793747e+01,5.727502888820630744e+01,4.358582572294261581e+01,-6.605501391797855604e+01,2.207601119206328377e+01,9.011501140830350209e+01,5.577285077989468931e+00,-7.379306730544954007e+00,-5.701272507679124857e+01,-2.582493065815284439e+01,-4.962733745573596167e+01
-2.797855830199993932e+01,4.911711818636349136e+01,7.709567648836338094e+01,-8.260867941917211965e+00,-5.255720047107275406e+01,6.048712587904802973e+01,1.183589037246299682e+02,3.949117427947925307e+01,1.944336197658364540e+01,-2.308942011321758869e+01,4.051836117010960692e+00,-2.700651762414420531e+01
-4.154428340812639675e+00,5.223438327855811281e+01,5.638881161937058550e+01,-2.171602007097008169e+01,-3.270832287915388292e+01,5.428048710333764859e+01,1.168707315986430899e+02,3.423226726356210747e+01,2.006284648686228067e+01,-2.077937879648218100e+01,8.004565855986870204e+00,-6.379153951148758495e+01
-1.768292351659276562e+01,3.644902335237516411e+01,5.413194686896773078e+01,-6.999627142058092666e+00,-3.588262184019287560e+01,4.297881436664358290e+01,1.057260880720219802e+02,1.618447779098129047e+01,1.073196894319949735e+01,-3.935233528737434483e+01,-8.747025906717935229e+00,-4.675350199078292235e+01
-1.533046411086065675e+01,3.143336921600299760e+01,4.676383332686350514e+01,-8.027825941081681904e+00,-3.344969045278924114e+01,3.689605018133516978e+01,9.031199813224836248e+01,1.101334138027615417e+01,-1.995653828653124684e+00,-4.805199230633969165e+01,-1.614070864112038350e+01,1.528872347294957557e+01
-4.197131163027898282e+01,1.766575283678784558e+01,5.963706446706677866e+01,1.468658677912765498e+01,-5.076681028617274904e+01,3.646575695067234335e+01,9.530769272408640802e+01,1.880495445009141164e+01,2.510716980279093846e+00,-4.056138560255525505e+01,-8.353425755312080980e+00,-2.353386594264414455e+01
-5.964163818605569389e+01,2.405371585414717472e+01,8.369535404020292901e+01,1.792163828514255641e+01,-7.408352720010717007e+01,5.160769982929699040e+01,1.109091622341551613e+02,3.356485495457445012e+01,1.950810727658975452e+01,-2.577956385429853370e+01,7.280668449440281798e-01,-6.084385200714078223e+01
-3.493538202699492956e+01,3.049325823173789018e+01,6.542864025873294054e+01,2.333780585062232404e+00,-5.017742265185676587e+01,4.798703378537373965e+01,1.026026682600180919e+02,2.411987284902406969e+01,1.394704171718317198e+01,-3.303267227970135878e+01,-3.264394053400468287e+00,-7.292169035975257430e+01
-4.605523939027222724e+01,2.177205808288375977e+01,6.782729747315610780e+01,1.219665979306995496e+01,-5.695796394180841560e+01,4.467028875094886331e+01,9.912920575369570031e+01,1.779040893926286770e+01,1.352193311682088783e+01,-3.886422823679272653e+01,-1.577322555593544884e+01,-7.538357650127477427e+01
5.153660212623444536e+00,7.294642426778063182e+00,2.140982214154666607e+00,-6.246867448150998925e+00,-9.657232954121193202e-01,2.044127725286156938e+00,8.044452324281651556e+01,-6.230215611308437929e+00,-1.273141823564292885e+01,-5.451939315994081170e+01,-3.271841276037034874e+01,-8.865257687696885114e+01
-3.158525686466784776e+01,6.564918979759623241e+00,3.815017584442740883e+01,1.485969466157089691e+01,-3.734502481296056686e+01,2.210985017528319219e+01,9.015794242590804686e+01,1.049150832108026421e+01,-2.516092711440052199e+00,-3.753879995304093597e+01,-2.579280861899110633e+01,-6.930297528694252662e+01
-1.454870435272191855e+02,5.258487264465971478e+00,1.507455307916850131e+02,6.999189377507971699e+01,-1.505872996670309476e+02,7.539511451717365276e+01,1.282951939532200072e+02,4.951907114718648728e+01,2.936624735848775103e+01,-8.320757866057933327e+00,1.399304169913274798e+01,-1.235486844699072151e+01
-5.773550036080811765e+01,-9.934748087569600372e-01,5.674202555205094711e+01,3.169742326427306267e+01,-5.725335012149677283e+01,2.541100743219664437e+01,8.783860864062884843e+01,1.511835987739776144e+01,-4.053526797239127788e+00,-4.980068507716304538e+01,-1.612509866280499438e+01,-8.797843232023032556e+01
-2.202750048585512843e+01,-6.806048953827191994e+00,1.522145153202773393e+01,1.680570397020665752e+01,-2.105713057393984045e+01,4.335541272480220698e+00,7.178513443377624981e+01,1.933403573073992021e+00,-1.825642064308999579e+01,-5.370940227474811479e+01,-2.800872702326561026e+01,-6.103088372506584847e+01
-6.335611768732393045e+01,-2.104326268271034195e+00,6.125179141905279323e+01,3.519382656586885361e+01,-6.227613576306606546e+01,2.736276949416669169e+01,8.552954672812059300e+01,1.611458224215476775e+01,-1.812043185832910464e+00,-3.809903077345501998e+01,-1.111313528104365922e+01,-3.313078290851606766e+01
-1.193298710095388344e+02,-6.387253547145594013e+00,1.129426174623932582e+02,6.294618392317013900e+01,-1.185363353942441051e+02,5.107953447407461312e+01,1.001267226456828183e+02,3.341690697180207081e+01,1.228169481261217477e+01,-2.588867708903446641e+01,6.271836142556850291e+00,-5.257761280018839756e+01
-1.373330907754804286e+02,-1.015983686418947052e+01,1.271732539112910274e+02,7.630279837104966134e+01,-1.322141386656576003e+02,5.622859121246951730e+01,1.009591218599717592e+02,3.818218249037883538e+01,1.447251912754586911e+01,-2.103276833680552826e+01,1.032171489610661119e+01,-8.527081420768415398e+01
-9.358918004625313358e+01,5.664230701163527115e+00,9.925341074741676550e+01,4.650227957237201792e+01,-9.883660732943749849e+01,5.247963847018778694e+01,9.259999779189874403e+01,2.860211944920249039e+01,1.369006747597498475e+01,-2.351702572266919233e+01,-3.520749134286674131e+00,-7.810704597829223417e+01
-5.146163585838693422e+01,1.613210021795983273e+00,5.307484588018294147e+01,2.740987853793649620e+01,-5.226728392664131206e+01,2.477740582164097560e+01,7.940616353880400879e+01,1.740378214429974335e+01,-6.260272141527335243e+00,-4.888799325069909685e+01,-1.603143714968986089e+01,-1.002658592756984604e+02
-4.926229347890611621e+01,-7.950607298734670536e+00,4.131168618017136396e+01,2.858161969363010257e+01,-4.531123274113649302e+01,1.645638521313239977e+01,7.059575419061791024e+01,8.175693304806470607e+00,-1.778711466356346449e+01,-6.446985872161978648e+01,-2.313102302854422376e+01,-1.232924855965503923e+02
-5.663810258923493279e+01,-1.329980687748534862e+01,4.333829571174940298e+01,3.488408225991691580e+01,-5.247047962892406758e+01,1.234411608872404820e+01,7.557471332415683207e+01,5.615001143532358796e+00,-1.230707045792134657e+01,-6.687512165024695321e+01,-2.582108210978594443e+01,-3.542348926509370699e+01
-3.355291534787134822e+01,-1.910238423003316655e+01,1.445053111783795430e+01,2.621590957232442776e+01,-2.404844717612030536e+01,-2.482207222612824005e+00,5.526751326982738277e+01,-8.811047762775018555e+00,-2.419896023279311947e+01,-7.167637244540360086e+01,-2.980750297941164462e+01,-6.598059208473412696e+01
-5.756073697440399428e+01,-1.035355798284441065e+01,4.720717899155938824e+01,3.630202145431064764e+01,-5.241877505426955963e+01,1.596818571159915301e+01,7.340930844964015023e+01,5.715228843620622001e+00,-1.848695967918672167e+01,-4.473421612101665090e+01,-1.590833049208848315e+01,-6.318554265191477270e+01
-5.562033092060006823e+01,1.820351991303231287e+01,7.382385083363229228e+01,2.110705378910740393e+01,-6.473156156814491169e+01,4.369814243044251612e+01,9.148077825891421355e+01,2.180860499568505873e+01,1.490739922936722639e+00,-3.883302939401119147e+01,1.516112794195981994e+00,-5.554940523504549788e+01
-5.778693306870088975e+01,8.253809343572804380e+00,6.604074241227371544e+01,2.479479311512302431e+01,-6.189288279749252553e+01,3.736570061778885332e+01,8.074683039299644349e+01,1.147744231130238290e+01,-6.506839161572013808e+00,-4.275067213788351239e+01,-6.026513532429371267e+00,-5.694691392962348431e+01
-7.002236135750047197e+01,-6.019743236731752489e+00,6.400261812076882961e+01,3.810675113200947806e+01,-6.940715428274425847e+01,2.677978560008346776e+01,7.572492445913729853e+01,1.395456660619382205e+01,-1.202720659240517520e+01,-5.013510055424467282e+01,-8.261052657712113501e+00,-2.785305180239734923e+01
-1.225723807245272070e+02,-2.480497425734409944e+01,9.776740646718324967e+01,7.623747142472890914e+01,-1.125560564506792076e+02,3.663254873331128181e+01,8.133905392381738864e+01,1.363711792057968353e+01,-9.962651161583147896e+00,-5.029353551918548959e+01,-9.233538675972271292e+00,-6.583322932024009333e+01
-1.036547753986926637e+02,-2.400412226431004115e+01,7.965065313438270778e+01,6.635898490967998953e+01,-9.405031070915893565e+01,2.784108191424354573e+01,7.778953602605866990e+01,8.781391614089088193e+00,-1.574800100839796357e+01,-5.293767433815557411e+01,-1.834087272153253778e+01,-9.323109999202323195e+01
-3.741594164920726939e+01,-3.904906103220254110e+00,3.351103554598703482e+01,2.313656623180320793e+01,-3.788887620652225507e+01,1.468236378387877750e+01,7.433677508240924681e+01,2.407480491776448517e+00,-1.625602918253487417e+01,-4.915745569136503690e+01,-2.118724808079937816e+01,-1.009922177381470192e+02
-6.452519993967493406e+01,2.068338555037915683e+01,8.520858549005403404e+01,2.433047021853931824e+01,-7.488628074779217059e+01,5.029394917962468270e+01,9.485128253656777986e+01,2.740867219302742797e+01,6.381454690243915095e+00,-3.549670371570771010e+01,5.871894328776701144e+00,-4.102386368164405184e+01
-6.190102244853087399e+01,3.999036137848397487e+01,1.018913838270147068e+02,1.087060580307901425e+01,-8.194277581281711775e+01,7.071845101047260584e+01,1.048124043239596546e+02,3.478728007448668080e+01,1.683909732755998689e+01,-1.341537448508785957e+01,1.793210995030297994e+01,-8.459360571510548255e+01
-5.305298012068766411e+01,2.485802935152984716e+01,7.791100947221735851e+01,1.643128727402193689e+01,-6.797882193056651090e+01,5.123609350459507539e+01,8.951217245718207494e+01,1.570984114724428693e+01,2.259959496619592390e-01,-2.778822347271449900e+01,9.256150192916821950e+00,-1.049159714880396734e+02
-2.298286322612212373e+01,-1.260997924517539559e-01,2.285676343367026320e+01,1.146775340894625117e+01,-2.296624985652217887e+01,1.134673640305760856e+01,7.359357533411993302e+01,-8.618240312793256308e+00,-1.830879595858856490e+01,-4.455539778468212120e+01,-5.931377932858714175e+00,-1.212044185673590277e+02
-5.985423392095566442e+01,-1.037553604963251530e+01,4.947869787132315622e+01,3.508061784468396382e+01,-5.468508883869689896e+01,1.966886027681685434e+01,7.216670695947463798e+01,-7.105721224960193538e+00,-2.265497303979087818e+01,-4.828066520962412511e+01,-1.768125718709794469e+01,-1.133365512922163276e+02
-8.158921474060477408e+01,-1.551501875624331461e+01,6.607419598436159447e+01,4.858284515614712262e+01,-7.625510950383336706e+01,2.304682696976590250e+01,7.600119645016286540e+01,-7.771624342842104127e+00,-2.093054748519566388e+01,-4.732312655176666993e+01,-1.549943276244949431e+01,-9.527302947907396913e+01
-1.185460010050832693e+02,-4.965559441019082243e+01,6.889040659489263874e+01,8.662455407328711487e+01,-9.367220641267699932e+01,7.394407473802504960e+00,7.084785450392254802e+01,-1.526047559820707455e+01,-3.146414130479692162e+01,-5.484548234550543100e+01,-2.765716839923639725e+01,-1.299482370402338063e+02
-9.347319904276737645e+01,-2.499306377492903763e+01,6.848013526783854843e+01,6.177836805964274447e+01,-8.335802000942423717e+01,2.188735608449269776e+01,8.121120821585972749e+01,-1.166012590946234884e+00,-1.980585840308840417e+01,-4.545132845508450004e+01,-9.328127837376932519e+00,-1.244891907274773075e+02
-1.636824551849993981e+01,2.910883122167881965e+01,4.547707674017883761e+01,-6.283371069927200736e+00,-3.087297088922576904e+01,3.731010699389720031e+01,8.247064151012183686e+01,3.587265187261222898e+00,-1.107308814892383531e+01,-2.875775439067673389e+01,9.115718691765861692e-01,-8.888486787643500975e+01
-5.272605298114221029e+01,1.493655050380822402e+01,6.766260348495032417e+01,1.892981142906618786e+01,-6.261211554531007550e+01,3.874535443133646595e+01,8.391920899508697573e+01,-2.795872012441181109e+00,-1.160185041267725659e+01,-3.969429589913698919e+01,-6.861889583231356227e+00,-8.709478504576929936e+01
-6.014326917094957992e+01,1.043583455446660757e+01,7.057910372541591926e+01,2.482281764248440226e+01,-6.537499450389299227e+01,4.030676540297010746e+01,8.501588051846694327e+01,-2.065228346172202301e+00,-1.327986166756970832e+01,-3.573872713142064583e+01,-4.108152736950308359e+00,-9.535536479879804972e+01
-7.178299435867603506e+01,-4.029742904720958308e+00,6.775325145395476056e+01,4.026104388993278604e+01,-7.225323519900334190e+01,3.165198800714378180e+01,8.046782831413449344e+01,-9.125644456002342864e+00,-2.220221261240482136e+01,-3.790639216198472639e+01,-6.504022914723091908e+00,-7.515249998137537091e+01
-5.763453543409085711e+01,7.622761537764692896e-01,5.839681158786706305e+01,3.076951627359505892e+01,-5.807570046374923578e+01,2.700056072317792655e+01,7.014456255582415167e+01,-1.826191764107347737e+01,-2.892969736231396993e+01,-4.722503227683037608e+01,-1.499359829347216433e+01,-9.503503370884934043e+01
-4.191706813064418213e+01,-1.420827890204417088e+01,2.770878922859990823e+01,3.041638986510491804e+01,-3.730573983376341118e+01,6.733699701811295846e+00,5.912913455537327678e+01,-2.785892543425018530e+01,-3.764501666918467748e+01,-5.898739977220056119e+01,-3.007145333013867372e+01,-6.702073006866507399e+01
-4.947080479659637575e+01,-4.927046210122556502e+00,4.454375858647392761e+01,2.960658174749028149e+01,-4.947341286752676837e+01,1.991905212966787175e+01,7.228902656252994063e+01,-2.149170510598552397e+01,-2.737350469206606363e+01,-4.804000211440177992e+01,-1.742661907667521959e+01,-4.432609569733601518e+01
-1.285861118701810213e+01,1.411479540062996563e+01,2.697340658764834131e+01,-5.942355396178053972e-01,-2.234581869761104045e+01,1.829851597556379517e+01,7.602451859783325006e+01,-1.739906215348808161e+01,-2.573371632700168377e+01,-4.226360179906517800e+01,-2.023129416481284082e+01,-8.490417382187730766e+01
8.392092553061626603e+00,3.331728409463784857e+01,2.492519154157657368e+01,-2.076863075677854553e+01,-1.066350075559268262e+01,2.688403637008585179e+01,8.053309325208276448e+01,-2.017001838447548678e+01,-2.661239164170948612e+01,-4.014658627944383795e+01,-1.790447285459379145e+01,-6.622451825712215623e+01
2.336594027633011450e+01,3.327335582858660246e+01,9.907415552256795266e+00,-2.577536389584486898e+01,4.349759864355134731e+00,2.172412105025900075e+01,7.619970753378650841e+01,-2.573378600030542529e+01,-3.943656403785011122e+01,-5.040221955473099769e+01,-1.923446898923706883e+01,-6.608202727576399127e+01
-2.225248767856131682e+00,1.888412115184107165e+01,2.110936991969735743e+01,-5.806954619442269205e+00,-1.161096706306569715e+01,1.757167269020823852e+01,6.769976794106406714e+01,-3.080854029308911279e+01,-4.049852435385872695e+01,-5.820528282455673974e+01,-2.858886391837054930e+01,-6.013309320475866571e+01
-4.839758911624717541e+01,-5.051379824368806837e+00,4.334620929187831706e+01,2.919416073448687854e+01,-4.827984145688656525e+01,1.903969308010695372e+01,6.431666517436765673e+01,-3.229123782301756762e+01,-4.100894668233264184e+01,-4.965743672066508196e+01,-2.659171253227380660e+01,-9.756189796637798395e+01
-8.987231870104463383e+01,-2.892827224313456469e+01,6.094404645790981334e+01,5.936629265380872056e+01,-7.541218247758568793e+01,1.582060259323326434e+01,7.036505307359230699e+01,-3.146281047392528762e+01,-3.774522195911316658e+01,-4.078323928369849938e+01,-2.375005347339205741e+01,-1.106235683010617663e+02
-1.110490541101646897e+02,5.643925820115608616e+00,1.166929799302799466e+02,5.505811020163015712e+01,-1.163501794721405247e+02,6.097443665747979935e+01,1.000478624208386123e+02,-4.222577839113941245e+00,-7.540818692921918753e+00,-2.332865465202516120e+01,-1.612758969577158696e+00,-7.546780742553335131e+01
-8.685529213555621197e+01,2.045976723374705486e+01,1.073150593693029720e+02,3.553558324425979009e+01,-9.714603729351809136e+01,6.132042173383902650e+01,8.977634128644521638e+01,-3.461108067297549162e+00,-9.300193176491326597e+00,-2.763661907566382681e+01,-2.100769383397782519e-01,-7.538570795794612422e+01
-1.196624588584045483e+02,-6.262575010792281205e+01,5.703670875048158706e+01,9.350375807725863808e+01,-9.085067863852894732e+01,-2.807815018049754308e+00,6.413522856108130554e+01,-3.737554898825180061e+01,-3.748028846173796325e+01,-5.881198230561792428e+01,-2.984689387136896954e+01,-7.135347291463335750e+01
-1.123878204277353205e+02,-7.768070039271252369e+01,3.470712003502288923e+01,9.744657319566304920e+01,-7.358684046767466214e+01,-2.382363912092163716e+01,4.797740018521521677e+01,-5.054417584431293164e+01,-5.650171776715880156e+01,-7.223275024695431057e+01,-4.649294874240040798e+01,-1.167584459193696631e+02
-4.644459710358702154e+01,-9.937582691444442062e+00,3.650701441214285836e+01,2.822607430962190023e+01,-4.147858573447883401e+01,1.346297746691173636e+01,7.115039947053989522e+01,-3.680886217617854328e+01,-3.542976649203740180e+01,-5.187884646901203212e+01,-2.500372095722943655e+01,-1.232567351000610927e+02
-1.065343651451162543e+01,2.369843332070327691e+01,3.435186983521526827e+01,-6.439516822067464119e+00,-2.490694349231735316e+01,2.676961702297422718e+01,8.532829324604976762e+01,-2.999044989581010867e+01,-2.667430033266640166e+01,-4.500907326632327710e+01,-1.307140040688025806e+01,-1.146905899756621352e+02
-3.983974375925854616e+01,3.903415840213319221e+00,4.374315959947219312e+01,1.806614934638224668e+01,-4.416989915060943162e+01,2.150381552095176474e+01,8.094015792289185640e+01,-3.570320969177808479e+01,-2.984256570237306505e+01,-5.051665192150517925e+01,-1.453462735229410541e+01,-7.111173283897537090e+01
-2.672895504473794404e+01,1.861392087629430847e+01,4.534287592103240883e+01,4.132546431863548975e+00,-3.597073161095617877e+01,3.199052225707408326e+01,8.220831561683307598e+01,-2.619861606745398674e+01,-2.605625853039678930e+01,-4.375528516094381359e+01,-9.302844416790804871e+00,-9.974435136003593527e+01
-9.799449402836401646e+00,3.364677444837871434e+01,4.344622385121505204e+01,-9.459560092027102129e+00,-2.901755116340070373e+01,3.844832994878772325e+01,8.377598169654649496e+01,-3.250382141196618591e+01,-3.626916506596786860e+01,-4.495244007568301470e+01,-1.701685002488379439e+01,-1.080902644806888304e+02
-3.196986194932443581e+01,2.446594478251119043e+01,5.643580673183537044e+01,6.157829898040612093e+00,-4.663437499773588257e+01,4.028250738235912820e+01,8.016735509342896648e+01,-3.152289884639090900e+01,-2.800322516894981462e+01,-4.086366028125871708e+01,-1.404735431192114703e+01,-4.784009210607722196e+01
-5.803588341823436281e+01,1.038213195994068272e+01,6.841801537817470091e+01,2.618967121824750066e+01,-6.325905639622516929e+01,3.678675725080120884e+01,8.553381385857063890e+01,-3.338411440680945930e+01,-2.694754040516532001e+01,-3.792380433578252052e+01,-1.616341607765172483e+01,-1.717479436816240224e+01
-5.803505064595650254e+01,-3.929783543683911251e+00,5.410526710227230041e+01,3.089262391070278824e+01,-5.857149570635107239e+01,2.253436110919660962e+01,7.528150446138751306e+01,-3.738132265970302370e+01,-3.839024278848693683e+01,-4.701693699014742833e+01,-2.442414571592738781e+01,-7.515116414365213870e+01
-5.631727039016101344e+01,-3.950454558768856650e+00,5.236681583139203866e+01,3.006501793728913441e+01,-5.685070322856675062e+01,2.175526531386383766e+01,6.910677699205568558e+01,-4.688319144679883976e+01,-4.218249950213323274e+01,-5.376805585059299375e+01,-2.965382542276092082e+01,-1.097758620264941385e+02
-6.326640239308451896e+01,-9.190205869414871387e+00,5.407619652366976482e+01,3.864502473554527739e+01,-5.872231607995858838e+01,2.009258474240764158e+01,6.749496887438282045e+01,-5.526450694608468694e+01,-4.665046908164114825e+01,-5.259537433696302600e+01,-2.685185304266736495e+01,-1.160434980528734314e+02
-5.067614837884510592e+01,4.886594204691569132e+00,5.556274258353695217e+01,2.292427491979909249e+01,-5.557356955432616274e+01,2.794063902308760561e+01,7.106087224108662781e+01,-4.656224242306051764e+01,-4.521627116482944331e+01,-4.697102632856373816e+01,-2.499273743394346425e+01,-8.371011891815255979e+01
-3.917713161923249032e+01,9.210461331212469460e+00,4.838759295044528130e+01,1.749304006595178507e+01,-4.375358420566200124e+01,2.652160328727715921e+01,7.543394292869811579e+01,-4.477382954960567929e+01,-4.144304480095856036e+01,-4.995727166502103955e+01,-2.292427385522957195e+01,-6.090294430475398002e+01
-1.124519939865968183e+02,-1.553765874674353498e+01,9.691433523985354270e+01,6.651794775971509921e+01,-1.070612421215140841e+02,4.079724471468848890e+01,8.570050156994393831e+01,-3.593235289987980252e+01,-3.001768240444533475e+01,-4.576991370026386363e+01,-9.806551666630882735e+00,-8.118093813432861339e+01
-1.046194911340896141e+02,-1.556028593190528753e+01,8.905920520218440117e+01,6.259570107565247099e+01,-9.920682231137774920e+01,3.676649197091886379e+01,7.727801899002199093e+01,-3.617462303468217044e+01,-3.596218797216692309e+01,-4.877624652990233045e+01,-1.432737721840880063e+01,-5.152400661073377819e+01
-3.448881936050482011e+01,9.147319217608725239e+00,4.363613857811341035e+01,1.513565868739749654e+01,-3.900623001124830580e+01,2.387349920253010538e+01,7.405843628672060674e+01,-4.237735180617132613e+01,-3.632386983369871558e+01,-4.992275602495308817e+01,-2.197608439897465615e+01,-7.940672377906668089e+01
-3.262165538826207012e+01,4.796838182997587019e+00,3.741849357125936137e+01,1.632836214655525708e+01,-3.744111166265417978e+01,2.096543684734989554e+01,7.540362064831535349e+01,-4.613194207966505189e+01,-4.258533762224567454e+01,-5.062852250080633354e+01,-2.379611633564881146e+01,-1.116533385064339683e+02
-3.926393197305934990e+01,4.761561191212249078e-01,3.974008809218024396e+01,2.177089233791005185e+01,-3.952790453867056897e+01,1.751561799023004795e+01,7.103195650417224272e+01,-5.274950227961063831e+01,-5.120737257259152386e+01,-5.736587692829072438e+01,-3.559746089310316108e+01,-1.099323427828445006e+02
-5.858012622092847721e+01,-1.378174315162099006e+01,4.479838306930724912e+01,3.610265377250140517e+01,-5.419112535643567696e+01,1.296118954047836525e+01,6.561875219190881126e+01,-5.181480445249626143e+01,-5.287455215309010725e+01,-5.177254225776060537e+01,-3.406923179344053665e+01,-1.236855739969323338e+02
-3.205070008948450067e+01,-1.371856991984784280e+01,1.833213016963660280e+01,2.525951324263974485e+01,-2.770719929921721558e+01,2.282624700878530977e+00,5.935836448341814986e+01,-6.623413739386845123e+01,-6.648129072290556962e+01,-7.804973962053090020e+01,-4.420117551068513961e+01,-8.980870479751715152e+01
2.978029755967411774e+01,-4.234528970507189349e+00,-3.401482653018113922e+01,-1.036138377677842648e+01,2.939528999016443223e+01,-1.905884877557729951e+01,4.301305895151599401e+01,-7.472233632759638056e+01,-8.080839848805510428e+01,-1.013352866066326783e+02,-5.609795020367810992e+01,-1.253286051619531634e+02
-8.418553419777872193e+01,-1.450371528247984543e+01,6.968181891529923178e+01,5.180281558971207545e+01,-7.939926403715358560e+01,2.771918747150096252e+01,7.579991988699495664e+01,-4.662594295395860655e+01,-4.531063973996084826e+01,-6.163675897220055333e+01,-2.014338058795500430e+01,-1.028779588366796247e+02
-1.165760804509813084e+02,-1.505846112475756549e+01,1.015176193262241640e+02,6.587476043606645248e+01,-1.114654410417842740e+02,4.093512289104206303e+01,8.506169055359532649e+01,-4.004331886323463863e+01,-4.158027347080884795e+01,-5.981045830902346694e+01,-1.810920901030164742e+01,-9.982251531313433190e+01
-6.324656389346441188e+01,-8.145906571482108838e-01,6.243197323631657270e+01,3.210523668403712350e+01,-6.277728496439181782e+01,3.091587303310780399e+01,8.564467838731559368e+01,-4.585300122128990097e+01,-3.988420083926558846e+01,-5.563703436099017807e+01,-1.962184865557565416e+01,-8.620203708502788231e+01
-6.560241726898755132e+01,-9.053082184373868468e-01,6.469710905055035255e+01,3.331760167457613875e+01,-6.506831256621947546e+01,3.192643434045092476e+01,8.220964002151642092e+01,-4.603670817506105095e+01,-4.086486961283336683e+01,-5.860017900500440646e+01,-1.922431606453814013e+01,-9.090883751656502909e+01
-4.465756908729483854e+01,-5.540304517656228001e+00,3.911726456963853593e+01,2.512852664823956417e+01,-4.425575531411747932e+01,1.429289196128219075e+01,7.419680063798793412e+01,-5.214478608399802084e+01,-5.089452033029848366e+01,-6.943236843918964496e+01,-3.171341087614808174e+01,-6.031237068768044196e+01
-4.786629372298339291e+01,4.705407350872364169e+00,5.257170107385543645e+01,2.156595339814567325e+01,-5.262461011539673450e+01,2.607842527216103790e+01,8.044512125418513904e+01,-4.605225614388066901e+01,-4.246257178272301758e+01,-7.007418674646554280e+01,-2.863745755178333852e+01,-1.120110236377203705e+02
-3.492448051687069466e+01,3.704332489304418274e-01,3.529491376580071460e+01,1.722508688795844733e+01,-3.512723246044017600e+01,1.769280757367870649e+01,5.649685397584962487e+01,-5.750647486347206438e+01,-5.597564229715169404e+01,-7.191145887136443093e+01,-4.533659255725892478e+01,-1.247453449703947541e+02
-2.466561124378353753e+01,-4.108042026361886201e+00,2.055756921742129251e+01,1.675795615990392662e+01,-2.511642454346547382e+01,8.117039849472112323e+00,5.584689103249560560e+01,-6.634933748120548103e+01,-6.259445144852455201e+01,-8.099275339789294037e+01,-5.849206971644798614e+01,-9.922776876375903043e+01
-7.094306815392960175e+01,-8.878916630141272748e+00,6.206415152378819045e+01,3.985149683874200832e+01,-6.659308701500302163e+01,2.655651739287937829e+01,6.410354718125999796e+01,-5.643463359760303888e+01,-6.165959052308841137e+01,-8.782213756348478739e+01,-4.914849661930688285e+01,-8.466865275538063429e+01
-9.665588778629839339e+01,-2.862206454403834854e+01,6.803382324226016920e+01,6.261038484315112385e+01,-8.242585874201319029e+01,1.975379042483143976e+01,5.745379096540136032e+01,-6.011831189005903298e+01,-6.141917424031775852e+01,-8.677443322428132433e+01,-5.129611442650883646e+01,-5.663403737878611111e+01
-1.422423073014608121e+02,-2.909327639489637107e+01,1.131490309065647892e+02,8.567909667425014675e+01,-1.277368521529853922e+02,4.214090157298284822e+01,7.075119645703261995e+01,-4.670920157949366569e+01,-4.544816578937648188e+01,-6.661656379864305677e+01,-3.482180029747124195e+01,-1.122704793947003452e+02
-1.406451108183620136e+02,-3.451278789124708624e+01,1.061323229271153679e+02,9.006444595648427764e+01,-1.258131550988835556e+02,3.594516095842618597e+01,8.012671926160919611e+01,-4.012904972988948060e+01,-4.653601539303144108e+01,-6.475478180789927762e+01,-3.271292381579163333e+01,-7.518903641031346297e+01
-1.120077389040172875e+02,-2.515325204386184055e+01,8.685448686015585906e+01,7.108275700960781762e+01,-1.018034849379272373e+02,3.095793621875257529e+01,6.621542762118110659e+01,-4.590077639601121007e+01,-4.473907977541077230e+01,-6.538906236326189969e+01,-3.903207913170673038e+01,-7.642774544977726237e+01
-3.654594453221089623e+01,-8.577365258368447876e-01,3.568820800637429613e+01,1.875785058231866387e+01,-3.602182702361892552e+01,1.745509842318774218e+01,6.289098497959479062e+01,-6.066884312011076474e+01,-5.538644443184346500e+01,-7.316007696400328086e+01,-4.348175576827636490e+01,-1.057656803735053899e+02
2.821992040307752703e+01,2.865995023926748075e+01,4.400298361899506183e-01,-2.841082801496610344e+01,1.397793767060134407e+01,1.450848883899376141e+01,6.466277848426312858e+01,-6.185394259554262675e+01,-5.561434611595413458e+01,-7.907778307089806447e+01,-4.624210009408741229e+01,-9.973951197684463921e+01
-9.047788168472571613e+00,3.402988150360545205e+01,4.307766967207776787e+01,-1.249926441713163427e+01,-2.845510613079633799e+01,3.600701198971122352e+01,7.571840281260517713e+01,-4.598971021825779104e+01,-3.745090195103404085e+01,-6.998051162349688070e+01,-2.861293840516348297e+01,-5.387734587595315361e+01
-3.493539535180870104e+01,1.017196761795424642e+01,4.510736296976254067e+01,1.233995640532628890e+01,-4.003329610771717739e+01,2.750751089937501348e+01,5.651008871903496811e+01,-4.770244234348834311e+01,-4.128901536515081006e+01,-7.188518627452070575e+01,-3.565759911768137158e+01,-8.599916171613070048e+01
-2.450351224763867464e+01,1.053885780331754241e+01,3.504237005095581736e+01,6.923331727957972248e+00,-2.984140107604199343e+01,2.268237897500970490e+01,3.618855697185386333e+01,-5.657956350918902899e+01,-5.289333774406773614e+01,-7.617071289070835860e+01,-4.401087128519668568e+01,-6.509641904498860754e+01
-3.171006269278056067e+01,1.545954126775775883e+01,4.716960396053807614e+01,1.051175823662642372e+01,-4.198048961098180598e+01,3.127063699161341503e+01,3.946107091065691463e+01,-5.157747119681873471e+01,-4.716170603430634145e+01,-7.330194361412911519e+01,-3.956292850774894276e+01,-8.440977195347632289e+01
-6.730627390760415096e+01,5.200506592110216708e-01,6.782632456681518818e+01,3.336551395015355581e+01,-6.766232427465220667e+01,3.420969307318952701e+01,3.767912443121866062e+01,-5.039847621752724649e+01,-4.694790383933928979e+01,-7.226258593141524500e+01,-3.189494460928271380e+01,-1.098754121068219547e+02
-7.893452323603287368e+01,-9.756626320462565616e+00,6.917789691557057097e+01,4.679392758939945907e+01,-7.411119358004906132e+01,2.737330318584148969e+01,3.154705574991150741e+01,-5.162664400523983943e+01,-5.533773284723194763e+01,-7.645610080330213520e+01,-2.995420374346168302e+01,-8.743856020630799719e+01
-9.701360473602689183e+01,-2.979968712320456348e+01,6.721391761282268362e+01,6.588725266841566963e+01,-8.210550083673423671e+01,1.639655506842654731e+01,2.156103038777471781e+01,-5.967161747047094877e+01,-6.122083403729138240e+01,-7.451382091462380686e+01,-3.749316382380905566e+01,-6.517397727258422435e+01
-6.838327633396153260e+01,-8.302001791838742317e-01,6.755307615477798322e+01,3.710376393881516321e+01,-6.789787566754509385e+01,3.102851203224910748e+01,2.245448069324381635e+01,-5.566749347627376920e+01,-4.956644606705339129e+01,-6.530979374055857534e+01,-3.886207790718093946e+01,-5.203917739403530618e+01
-2.691281757006109387e+01,4.091257384882034387e+00,3.100407495494325616e+01,1.390214982044991210e+01,-3.129126884144354293e+01,1.759265809429577132e+01,9.480278564648372708e+00,-6.066201015822944242e+01,-6.501595038470262011e+01,-8.279455474112916136e+01,-4.331042847273586460e+01,-6.210469950037187914e+01
-7.900160211677422240e+01,-5.409046864435293145e+01,2.491113347242115594e+01,6.901196938122605218e+01,-5.429274799038957156e+01,-1.462208224236759868e+01,-3.376713425508405031e+00,-8.135693523712433262e+01,-7.009220542990199476e+01,-9.847822744228662373e+01,-6.565914412109894727e+01,-1.001341222080083213e+02
-9.652856882208183720e+01,-6.330386939502766097e+01,3.322469942705383517e+01,7.990657292625760988e+01,-6.725677370186821236e+01,-1.757573759768171584e+01,-1.194138689611924420e+01,-8.501182159228825697e+01,-7.635744995092484544e+01,-1.040804264077384431e+02,-6.766543035245049964e+01,-8.354195756034231124e+01
-9.306553599432392332e+01,-5.306018443704987675e+01,4.000535155727365577e+01,7.546108665095118795e+01,-6.898346661565301474e+01,-6.650620222340068111e+00,-2.046032468824555473e+00,-7.697426865432043996e+01,-7.051683218110512996e+01,-9.143380847010769230e+01,-6.018746514839037332e+01,-1.155287166291644496e+02
-8.762302750282945851e+01,-2.843123655135673999e+01,5.919179095147239167e+01,6.040958742047564556e+01,-7.348140773529948433e+01,1.283601165226074059e+01,1.161801660759829069e+01,-5.657895922398064670e+01,-5.781961360282441120e+01,-7.139249700411906474e+01,-4.420302960804412606e+01,-1.237009444922881158e+02
-7.555789417352659143e+01,7.411108280530712689e-01,7.629900500157948784e+01,3.979794192745457337e+01,-7.604050301989187233e+01,3.603261570176852757e+01,2.455769023995659950e+01,-5.156809798353511809e+01,-4.239737695793230188e+01,-6.366104396408023547e+01,-3.484465254586201866e+01,-7.936443850588594273e+01
-3.823346731112027896e+01,1.010870344907941920e+01,4.834217076019976389e+01,1.403880394937239728e+01,-4.339478334244011393e+01,2.925115226066569818e+01,2.280085362174572339e+01,-6.012771919165685119e+01,-5.195683868336618616e+01,-7.721599989757559968e+01,-3.682344554021165095e+01,-8.514541361076727810e+01
-5.980570046377309268e+01,-3.433695369955294296e+01,2.546874676422044814e+01,4.708330127676381949e+01,-4.513786032861266051e+01,-6.785730158649321275e+00,2.150160162269999731e+00,-7.110196434699992096e+01,-7.494913874140866028e+01,-9.109028551739342561e+01,-5.426267133611283811e+01,-1.114356875152602129e+02
-1.120645469900759537e+02,-7.384687112913314877e+01,3.821767586094323121e+01,9.543816679903659406e+01,-7.757223644366523274e+01,-1.769690150484878188e+01,-1.256185989049722096e+01,-8.892041361978782277e+01,-8.077083300292547108e+01,-1.086017346966653463e+02,-7.146683739846154992e+01,-1.282734140072759317e+02
-6.377780357493595886e+01,-1.064237789798953671e+01,5.313542567694678809e+01,3.726660505555079794e+01,-5.838141805890089131e+01,2.135019820431254800e+01,1.285047840672953789e+01,-6.055895295323908556e+01,-5.929922354340671120e+01,-8.473970895566203865e+01,-3.867117074345078720e+01,-8.605292060924085717e+01
-7.433517777719534259e+00,4.315253914246794409e+01,5.058605692018763023e+01,-1.537064463177585516e+01,-3.133642498725427572e+01,4.692152004765243589e+01,3.408226349216560891e+01,-3.144081172607670638e+01,-3.566922380709515039e+01,-6.321461727369148775e+01,-9.037725663233782569e+00,-8.661654622699461470e+01
-4.951987350083154382e+01,-5.207072127628747715e+00,4.431280137320269574e+01,2.982630258181301386e+01,-4.924793911837426208e+01,1.953530390433294173e+01,6.553477585398942651e+00,-6.191693370788916440e+01,-6.512713250072069116e+01,-8.870909148861031213e+01,-3.150357530726898858e+01,-7.606480292415727718e+01
-6.200739021941318185e+01,-2.414304272905668114e+01,3.786434749035615965e+01,4.550384920171613601e+01,-5.231414666826282200e+01,6.780455314853477411e+00,2.776774671504790959e+00,-6.067438996530813711e+01,-6.651970294315701437e+01,-9.923572261880509870e+01,-3.849681760999251168e+01,-9.953079950485999028e-01
-4.388607641702415663e+01,-4.139695240829021294e+00,3.974638117619466726e+01,2.641202057536258963e+01,-4.426517589833594002e+01,1.769023830332140435e+01,7.676429944399083993e+00,-5.746879615752256143e+01,-5.094940851348199828e+01,-8.172955200266082443e+01,-3.107793004243348634e+01,1.276348026729826390e+00
-4.833062424285863301e+01,5.808737479138486037e+00,5.413936172199668562e+01,2.120594194840092683e+01,-5.375156910524293608e+01,2.742908250918962665e+01,1.636434475002597111e+01,-5.165870114321826634e+01,-4.805447891877115296e+01,-7.143918108527581978e+01,-2.484783435417011077e+01,-7.986547546983811685e+01
-3.160912130429986888e+01,5.626262375434209595e+00,3.723538367973386443e+01,1.538254928909661423e+01,-3.697739991575502216e+01,2.137151750923304760e+01,4.858010055693396723e+00,-5.637588225366631889e+01,-5.707860071032283855e+01,-8.320124832133684833e+01,-3.494943532653014273e+01,-6.457191186168098795e+01
-4.332457561374338439e+01,2.608405246209046791e-01,4.358541613836437989e+01,2.394735431766433464e+01,-4.356438608083697517e+01,1.949041854503368043e+01,7.996011194053483706e+00,-6.006278397855484741e+01,-5.203930651546376396e+01,-7.232981011754381484e+01,-2.220114736742636197e+01,-4.582351137947166109e+01
-6.506922431588387212e+01,4.541795542069168690e+00,6.961101985795340852e+01,3.271300236374689518e+01,-6.984120236970770179e+01,3.714730662671902195e+01,2.157897239564942993e+01,-4.667464622511671735e+01,-4.088734332328844800e+01,-6.666425084885207752e+01,-2.003195014986182443e+01,-8.189361327270442814e+01
-7.832091665938871472e+01,-8.123139813864730385e-01,7.750860267800274528e+01,4.204643273912201096e+01,-7.790355147070998498e+01,3.601696086642974848e+01,2.650456505893627934e+01,-4.501310572105332852e+01,-3.203989463329273946e+01,-6.464102362209575858e+01,-1.764569264053413278e+01,-9.886963318132957568e+01
-6.894060345796475531e+01,-3.513326052851085279e+01,3.380734292945436437e+01,5.209217644620638055e+01,-5.373446910780330654e+01,-2.995615536376736276e+00,8.116397243122543514e+00,-6.059415147060304463e+01,-5.442339382945407777e+01,-8.957599022569586111e+01,-3.850101210585607703e+01,-1.202715072998351786e+02
-5.626918460463203076e+01,-5.443930038920139225e+01,1.829884215430891192e+00,5.784370286275042616e+01,-3.137255258655017087e+01,-2.623746093464512086e+01,-1.451333392927794286e+01,-8.028761645560882698e+01,-7.465409224866782267e+01,-9.735593622679985515e+01,-6.258840608899582492e+01,-8.193319634250588024e+01
-9.321742817108938084e+01,-5.393080663658756890e+01,3.928662153450176930e+01,7.359887685738924290e+01,-6.858327772829748881e+01,-9.758700111461935833e+00,-7.920637463220106866e+00,-7.173262948783330728e+01,-6.993260897421768618e+01,-8.874108770173337746e+01,-5.588381091813117507e+01,-1.055646216540185236e+02
-1.201735881550057599e+02,-6.795797687896120465e+01,5.221561127604419283e+01,9.405617839702632921e+01,-8.613632308412812222e+01,-7.932477826531267873e+00,-2.050156038579176609e+00,-6.072416820277348393e+01,-6.158313616055320949e+01,-9.931246719759211317e+01,-5.324452970033755861e+01,-9.383987558764839321e+01
-5.322359226064183702e+01,-1.866819335151845394e+01,3.455539890912284307e+01,3.590528205018473074e+01,-4.390379842079475026e+01,7.840121877476768475e+00,-2.160778043756481637e+00,-6.236732978546594097e+01,-5.580687093090399742e+01,-8.181394130243523932e+01,-4.590569794341236332e+01,-1.109390062011508604e+02
-2.849693552428692556e+01,2.544406823091787473e+01,5.394100375520427093e+01,1.470298511379837691e+00,-4.373999081944287326e+01,3.714419962669522590e+01,2.595861252259698304e+01,-3.698596719285018253e+01,-2.853995956315700155e+01,-5.196167584169388221e+01,-2.014552906269253540e+01,-9.922640604985255663e+01
-7.054013836395712644e+01,-4.014918452530416459e+00,6.652521991142637603e+01,3.966784787689892511e+01,-7.108951112471487477e+01,3.118044517668732141e+01,1.932624634763886462e+01,-5.140921136838465344e+01,-3.756920732178646460e+01,-7.340431661459045642e+01,-3.014457147482498200e+01,-1.228992765383299854e+02
-1.020243062424763707e+02,-4.356541050485625277e+01,5.845889573762011082e+01,7.277151641264494231e+01,-8.278980036933636200e+01,4.991998204256492322e+00,7.899965313526376320e+00,-5.506635126484370346e+01,-4.715515734764320399e+01,-8.197573780188855608e+01,-3.676785677594511270e+01,-8.465114655147912970e+01
-1.142299315562597002e+02,-3.936611516379005593e+01,7.486381639246995690e+01,7.681033981478728379e+01,-9.460481474899630427e+01,1.779903707268320545e+01,2.075868041432347155e+00,-6.121686969220855445e+01,-5.551162373227603553e+01,-7.628199647933993788e+01,-3.935985954675700071e+01,-5.738741593012080244e+01
-6.902785195941294205e+01,8.835872436929141926e+00,7.786372439634254761e+01,3.257927748053419492e+01,-7.343039099337930509e+01,4.100688152295922606e+01,2.173322684890129253e+01,-4.986666456587301610e+01,-4.179703023454510458e+01,-6.454119757822776648e+01,-3.206585449817131206e+01,-7.938439494625356474e+01
-6.934057078984895384e+01,2.320860502316383034e+01,9.254917581301324958e+01,2.312359720170840660e+01,-8.330130918936994533e+01,5.554801198303067622e+01,3.265951843424682011e+01,-3.138307017256630971e+01,-2.517412937119378924e+01,-5.053020165708238665e+01,-1.883744952853511023e+01,-9.114840801935275749e+01
-7.108482631272630670e+01,-1.004529034060491099e+00,7.008029727866615133e+01,3.853414198557727843e+01,-7.046281798267072816e+01,3.217981311629395691e+01,1.976352864180663715e+01,-4.626742587327675693e+01,-3.567311110729288259e+01,-5.840874001195589926e+01,-2.842540812795298422e+01,-5.775499024354557065e+01
-1.500580732558117703e+01,4.457834817254235915e+00,1.946364214283547867e+01,5.295747898054089298e+00,-1.956510548068258259e+01,9.546172205311092895e+00,6.765428940490354037e+00,-5.724541772511108917e+01,-5.047399580610912295e+01,-8.889698557542723734e+01,-5.114367846724052669e+01,-8.625806063563736359e+01
-2.214890170842040007e+01,5.223248624701899878e+00,2.737215033312207879e+01,1.088796922575276582e+01,-2.714403567685838681e+01,1.625795147262880391e+01,1.254729008881606056e+01,-5.594989414512341597e+01,-4.697958233034648146e+01,-8.971696553374617622e+01,-4.371428477653147837e+01,-5.005767119985664237e+01
-5.752319914950498969e+01,-1.851944373964196444e+01,3.900375540986258471e+01,4.041546581874560928e+01,-4.828271051179778794e+01,7.712077515839434128e+00,1.236489598241226240e+01,-5.262630467120627031e+01,-4.116103430950269626e+01,-8.192813151250489057e+01,-4.125552207270569482e+01,-1.335043132520321052e+01
-4.264306173325604021e+01,-3.590541549760611240e+00,3.905252018349492715e+01,2.549798138943186743e+01,-4.337565508898850197e+01,1.762316194886367882e+01,1.117630873415467718e+01,-4.179159214421084556e+01,-3.825238857234446499e+01,-7.638374825641226096e+01,-3.492382211805199432e+01,-6.493913414792895367e+01
-6.060890122222449605e+01,1.089783921047896120e+00,6.169868514327200160e+01,2.971060611124590878e+01,-6.127638522273709754e+01,3.130750223464267634e+01,2.408887609396047225e+01,-4.639024744118196963e+01,-3.261930906661695673e+01,-7.332482343482716658e+01,-3.013489611737021434e+01,-5.923943757270531307e+01
-2.419500327265849293e+01,4.678830476525880355e-01,2.466288632031094608e+01,1.428325472997712708e+01,-2.453835075588381542e+01,1.009065985350727246e+01,1.273527173017052405e+01,-5.979474002949167044e+01,-4.708957332307527821e+01,-7.693462830019475973e+01,-3.660757181797915649e+01,-6.340786212574647251e+00
2.315964680281956234e+00,4.531888045601625947e+00,2.215923365319854454e+00,-9.675194802953721585e-01,-2.443239980712548665e+00,3.402952853073232919e+00,7.008166952818331907e+00,-7.086941912781560404e+01,-5.547355087498716841e+01,-7.608498336331294354e+01,-5.374461897204244565e+01,-8.652034801484523996e+01
-6.239438628548518828e+00,1.359093675451745575e+01,1.983037538306641068e+01,-1.188474634129147667e+00,-1.545139190776157712e+01,1.679271079887732299e+01,1.210761443519232650e+01,-6.448486449596180137e+01,-5.156021890226339366e+01,-7.413317719963912111e+01,-5.133424592847789114e+01,-5.011834984393392745e+01
-4.052174213814064530e+01,1.327765194279856509e+01,5.379939408093974151e+01,1.368196617573162577e+01,-4.950968949839278110e+01,3.120400545655595081e+01,2.306401455224767361e+01,-5.097655488248180689e+01,-3.985900974834988375e+01,-7.485712387238392296e+01,-4.309242290772679240e+01,-2.300626410218886164e+01
-4.189733601912000438e+01,8.599575192847513705e+00,5.049691121196793375e+01,1.913786612202039805e+01,-4.607404532787280260e+01,2.719883634422849639e+01,1.989183488450545667e+01,-4.640712227832262471e+01,-3.574385845582852284e+01,-8.287176691486294544e+01,-3.332863197811995093e+01,-3.849625779443278617e+01
-4.886719815903273911e+01,4.367491722963910306e+00,5.323468988199678620e+01,2.470875903014915664e+01,-5.338299167152938907e+01,2.884414235126079618e+01,2.632836753617670311e+01,-5.251127571316271059e+01,-4.077978319814367580e+01,-7.932530114346157291e+01,-4.644533064039719505e+01,-2.792616574629404269e+01
-2.647615489022387791e+01,5.220958770887854428e+00,3.169711366111153694e+01,1.060891993339127737e+01,-3.147565260342481253e+01,1.599953996322681249e+01,1.737109798910479341e+01,-5.603796154891243475e+01,-4.212833160238412944e+01,-8.508202073794468845e+01,-4.885876948514260221e+01,-6.227099584823743150e+00
3.578916483807367399e+01,5.958432560251059940e+00,-2.983073227782305992e+01,-1.848322065347703358e+01,3.034379561261573244e+01,-1.201064509314150364e+01,-7.292024829167969457e+00,-7.702216469672788435e+01,-6.066019865585813164e+01,-1.065360023963404359e+02,-7.566018099480419323e+01,-6.694525311870650341e+01
-7.149892041523732189e+01,1.117825893770026546e+01,8.267717935293707399e+01,3.009911929288215759e+01,-7.718132755933831390e+01,4.682567707368897203e+01,3.540497985844456963e+01,-3.682325772584476908e+01,-2.355380282639897160e+01,-5.695270287174731294e+01,-3.505819465822575154e+01,-9.889863051330199539e+01
-1.239529187349462802e+02,3.050773600169257094e+01,1.544606547366384461e+02,4.911339725162756054e+01,-1.393305650389668529e+02,8.995160237609894693e+01,7.763429849258025683e+01,-7.212477084518615911e+00,6.496441387202311901e+00,-2.932615896087985519e+01,-5.703388879317404125e+00,-5.902706517035897349e+01
-7.815897668373389706e+01,2.985378629563599873e+01,1.080127629793697395e+02,2.413483098346798883e+01,-9.319153287406132335e+01,6.888304292254225913e+01,6.150464232968709410e+01,-1.573163949656624183e+01,-7.977218302582972598e+00,-3.765634442469728782e+01,-1.689069585907339643e+01,-5.500747811337891591e+01
-3.240573725251687165e+01,4.361698000942897835e+01,7.602271726194601342e+01,-5.584849869265894995e+00,-5.670076360019529460e+01,5.738945392295303805e+01,6.078501825006714654e+01,-2.196675366360959458e+01,-1.638690298413610336e+01,-4.648625140026377522e+01,-2.904961991643332198e+01,-4.258713790494182660e+01
-2.637281704114891312e+01,3.796326153665813763e+01,6.433607857780745576e+01,-5.743949751713396168e+00,-4.532434813758807479e+01,5.121513704524827659e+01,6.597617388259503457e+01,-2.542081115986799489e+01,-1.740007380383266522e+01,-6.410400814743414344e+01,-3.641515996389808407e+01,-9.412235016633263740e+01
-3.116596253684148365e+01,3.270139840034350698e+01,6.386736093718551643e+01,-7.057478220136692570e-01,-4.986223063995669946e+01,4.594191593332921997e+01,5.742024669281255456e+01,-3.153181375059616798e+01,-2.527825081064419521e+01,-7.476720821121608651e+01,-4.782925736703695208e+01,-7.681559225283110948e+01
-1.750537768099163216e+01,5.237859287352291915e+01,6.988397055451498829e+01,-1.494760423630091140e+01,-4.601329417697947122e+01,6.122589250561968299e+01,7.367956018120933948e+01,-1.241262005907287325e+01,-6.577640479785686445e+00,-5.374536897387375944e+01,-3.339752354909198573e+01,5.311703581499807036e+00
-4.357502993722628304e+01,4.326540663760664529e+01,8.684043657483307754e+01,1.723501630148369657e-01,-6.754709938476307229e+01,6.267089912874970992e+01,7.996835183632040867e+01,9.628456666206841597e-01,3.005299749021157041e+00,-5.039888529226165303e+01,-3.207594650053104601e+01,-4.748205338071426951e+01
-5.509061644985313677e+01,3.928522137232533851e+01,9.437583782217825501e+01,1.032214619474905781e+01,-7.469210362389807756e+01,6.439111884131369834e+01,8.063163423242869499e+01,7.236246561235690322e+00,6.571353620610604906e+00,-4.645615199930017525e+01,-2.970839821297761318e+01,-7.938280840254219584e+01
-3.679041190972894526e+01,4.010214162467497090e+01,7.689255353440343299e+01,7.335092331263570742e-01,-5.687451998142326204e+01,5.600013463765995425e+01,7.542546044247680470e+01,1.565233984817517943e+01,1.740981933249056013e+01,-2.874808191024204262e+01,-2.717106825597621267e+01,-6.687103372466381757e+01
-3.216955704066942445e+01,4.052939277763768189e+01,7.269894981830648817e+01,-4.241351937601850253e+00,-5.252706939871049485e+01,5.651984868559451769e+01,5.960641410950553620e+01,1.208962291707148751e+01,1.559114291275430553e+01,-2.769810963529428705e+01,-2.540727827863628363e+01,-4.027980670403071883e+01
-3.139344437363664753e+01,4.040329648671995955e+01,7.179674086035609548e+01,-4.554510370649085260e+00,-5.171070159819017675e+01,5.600320079456476208e+01,4.827544589080656579e+01,-2.101625546648977938e+00,6.680139963557106597e+00,-3.882104760295801782e+01,-3.483848577099360710e+01,-5.316508625008382616e+00
-5.916222638541353973e+01,2.512376877376644302e+01,8.428599515917979090e+01,1.943974194877132788e+01,-7.425788933475928388e+01,5.464116971592285665e+01,4.204061775743632268e+01,-8.494665150850582158e-01,6.838991827814025370e+00,-4.209482203003583578e+01,-2.631550149835289432e+01,-2.572202633437660424e+01
-4.283112492971498853e+01,1.932170503647752113e+01,6.215282996619269795e+01,1.421299480599744847e+01,-5.252886888416145439e+01,3.828965607555517181e+01,1.702095662212192906e+01,-1.206823259632556500e+01,-1.665271541196126526e+00,-4.606122642858398564e+01,-3.354497509140902167e+01,-3.284517265173888489e+01
2.188693202258107462e+01,5.262294793022571326e+01,3.073601590764514313e+01,-3.476506669136619365e+01,-6.831873533200579551e+00,4.173009872228254835e+01,-2.154850524066336703e+00,-2.545464368821193446e+01,-1.257856591783293432e+01,-5.411896177204317837e+01,-3.125667079037548035e+01,-5.024101135048595523e+01
2.720462490635238595e+01,3.751821663388415118e+01,1.031359172753241005e+01,-2.985821412369970673e+01,8.533739955657134502e+00,2.156576262704732372e+01,-3.515212425026017939e+01,-5.613246501582036529e+01,-3.034174688175574985e+01,-6.507810940899308605e+01,-4.288620885256876392e+01,-5.246390731677152530e+01
2.666291955018557758e+01,2.786571223488568450e+01,1.202792684700630055e+00,-2.477144078610320221e+01,1.283935391677210447e+01,1.219009636762513971e+01,-4.826731079919017731e+01,-6.638389031046767741e+01,-3.121550759720505042e+01,-6.384397898677524097e+01,-3.845274379358329497e+01,-4.497411015558176572e+00
5.811759199018352362e+00,2.850553453042503094e+01,2.269377533140686509e+01,-1.469633079726872182e+01,-8.352160157873585788e+00,2.322624057285026211e+01,-3.720322053335981849e+01,-7.250269122480729322e+01,-3.134902171198868359e+01,-6.062718611414263847e+01,-3.241918109465481734e+01,-5.729029500243904494e+01
-2.513218263186315937e+01,1.479874578860015255e+01,3.993092842046309698e+01,5.149147763116378229e+00,-3.493646815607783651e+01,2.493812716326300816e+01,-5.612756948296104298e+01,-9.049232509630893162e+01,-4.717428048842440091e+01,-7.614232580878162082e+01,-4.960492305173650607e+01,-5.013962721423447988e+01
-2.167462011078641027e+01,1.567485332205734139e+01,3.734947343284320453e+01,5.387864315446046604e+00,-3.198363712065164322e+01,2.646823313548010859e+01,-6.133727863293906779e+01,-9.651827322461421943e+01,-5.081195400472039836e+01,-7.284625284930135081e+01,-5.183662003166996612e+01,-3.270945505227661698e+01
-1.747241587512906236e+01,2.104594529909504885e+01,3.851836117422342909e+01,5.859185767261781974e-01,-2.808089421820983134e+01,2.725824819452435221e+01,-5.757654038071108005e+01,-9.501634271061584514e+01,-5.249723943893722122e+01,-8.125627160286141759e+01,-4.986219987818054022e+01,-2.557754364248848589e+01
-2.691449359496435889e+01,3.073031081669908815e+01,5.764480441166290348e+01,4.753075268672870557e-01,-4.238522844387671284e+01,4.165480001066374172e+01,-4.440866216839051361e+01,-9.446409680830579703e+01,-4.671667851624903278e+01,-7.260523157529004834e+01,-3.954025718483360663e+01,-3.448498565226564239e+01
-4.034054193582418435e+01,3.011685672076719200e+01,7.045739865659115253e+01,5.087665408750002172e+00,-5.548333447511908645e+01,5.021926282070896264e+01,-4.566941041143220303e+01,-9.322986272984351785e+01,-5.148808592968987341e+01,-6.600583799439377231e+01,-3.572578075256469532e+01,3.676470601782187764e+00
-3.864860765279712496e+01,3.895300063421800729e+01,7.760160828701533831e+01,-1.342869996576006031e-01,-5.815590991082682848e+01,5.825900343389999136e+01,-3.648571935004267885e+01,-8.506769477511160460e+01,-5.036906859638834533e+01,-6.516144568764320866e+01,-4.291119989292340620e+01,6.484404138251406380e+01
-2.730820000761759303e+01,3.318053163499700986e+01,6.048873164261515001e+01,-4.424590830735624092e-01,-4.630495770088884910e+01,4.687228788884062425e+01,-3.129188185796471799e+01,-7.914841074443883429e+01,-4.193600589692324832e+01,-5.392494728054289510e+01,-3.584684967942383338e+01,-2.092251920489655959e+01
-2.151756721605773137e+01,4.240943151935805133e+01,6.392699873541645417e+01,-1.037603024953178021e+01,-4.507929609222926359e+01,5.080719766559791140e+01,-2.046199587687777210e+01,-7.099740234056885413e+01,-3.544177834466166388e+01,-5.542071404253250932e+01,-3.793122160298320722e+01,-1.345974491788745908e+01
-5.577552805797463975e+01,8.273455769709261887e+00,6.404898382768443810e+01,2.381081440630629231e+01,-5.981322994960227390e+01,3.625155052458408989e+01,-2.881550459526267360e+01,-7.649833923157018489e+01,-4.125258512510475128e+01,-5.932469434611198267e+01,-4.838503562601461994e+01,-3.878790346388501575e+01
-3.735456122837749149e+01,-5.802994978533099868e+00,3.155156624984456570e+01,2.404556156830577862e+01,-3.681635420561569561e+01,1.294254051610289302e+01,-4.225570687234063882e+01,-8.750242318113159001e+01,-6.574434949551149998e+01,-9.040006869609540274e+01,-7.182535293840382451e+01,-5.262905940241067526e+01
-4.919943828380025863e+00,9.732094900394498538e+00,1.465203872877422597e+01,1.756628204828669659e-02,-9.760299167528852848e+00,9.773449563908158666e+00,-3.195638675170289034e+01,-8.585689214566430394e+01,-6.193349729170951434e+01,-7.659860164444660313e+01,-6.956190130443556541e+01,-6.014977133237530182e+01
3.101806933952653278e+00,3.504189662472867894e+01,3.194008969077535198e+01,-1.912546958109324180e+01,-1.689279064604406599e+01,3.101777451838957234e+01,-1.274395869679533710e+01,-6.728567214302421462e+01,-4.101954732861098307e+01,-5.846217170694878007e+01,-5.218310388484423612e+01,-6.705563337602488616e+01
3.125822113630049515e+01,6.980884252694339409e+01,3.855062139064209958e+01,-4.816487046724928689e+01,-3.724530580637733124e+00,5.166429916684238322e+01,-8.876496402829891608e+00,-6.068833926046333715e+01,-3.280198464886666443e+01,-4.704728386575153820e+01,-4.997485415923985386e+01,-4.512600823862905486e+01
7.020962551568574384e+01,6.501686710932268909e+01,-5.192758406363656931e+00,-6.767593839157575530e+01,3.516954037681489353e+01,2.738256721769474566e+01,-1.019311315349433755e+01,-7.461912056362392320e+01,-4.157501926031578421e+01,-5.761329502699793181e+01,-5.887902594909563447e+01,-3.429997516399217972e+01
6.144839179544557339e+01,2.061712278590977476e+01,-4.083126900953595140e+01,-3.862333104507833070e+01,5.107040129810415152e+01,-1.261717768504418302e+01,-4.059553776521923396e+01,-8.798932865064128350e+01,-6.099356544250114354e+01,-8.987524064308226457e+01,-7.434972978199911608e+01,-5.450890525346233773e+01
-1.490418330923105472e+01,-2.420863574181275268e+01,-9.304452432581321375e+00,1.956975539165421907e+01,-5.261111930750303145e+00,-1.922102632936686106e+01,-3.623379393135240889e+01,-8.969231787102708608e+01,-6.974122298581858104e+01,-9.394007202096668152e+01,-8.145985959973585011e+01,-8.112378485574916454e+01
-4.724810875335543159e+01,-6.915772670045794257e+01,-2.190961794710174360e+01,5.825549635316101416e+01,-1.263562451100535355e+01,-4.550302881759535722e+01,-6.037118923142399751e+01,-1.083839015505253798e+02,-9.076256926420226989e+01,-1.171008230372267604e+02,-1.037980385161967689e+02,-8.894367282593890423e+01
-8.017039528937348791e+01,-9.433907623123943154e+01,-1.416868094186506433e+01,8.732700356000633235e+01,-3.536696366173966766e+01,-5.661902655682084173e+01,-5.944468306461116214e+01,-1.151126175992447713e+02,-8.932960582612500389e+01,-1.238357847312261129e+02,-1.110432956201274095e+02,-6.711499956112241705e+01
-5.555163286582279625e+01,-4.087569807507793485e+01,1.467593479074552576e+01,4.827874083084227408e+01,-3.502925353051723789e+01,-1.300856175564760164e+01,-3.380907959717081468e+01,-8.662385431473209962e+01,-6.109104900310543229e+01,-9.879329163776148448e+01,-8.766336314960167897e+01,-6.345815601796113725e+01
2.655786273888646676e+01,3.769637209310522508e+01,1.113850935421895194e+01,-2.965320521177319435e+01,7.772281640282225901e+00,2.205092453388771290e+01,-3.437550938486515051e+00,-5.860274775551508952e+01,-3.675609796534238427e+01,-6.658018628167675956e+01,-6.252765599807329266e+01,-5.796780156220893332e+01
3.473652063793895195e+01,3.389262898180399475e+01,-8.438916561353027035e-01,-3.432407750121826950e+01,1.536765922688135255e+01,1.411175041644428596e+01,-2.883925938374755304e+00,-6.167425949776060179e+01,-4.253179430275601192e+01,-7.706672697165544150e+01,-6.515997166763250448e+01,-4.596551850870996958e+01
-4.021277533363264922e+01,-2.828339535960800788e+01,1.192937997402386685e+01,3.419850662889415105e+01,-2.610433467150217623e+01,-8.206827463047343230e+00,-2.258980485028337526e+01,-8.187312906699015969e+01,-6.041219841525902012e+01,-9.764697881860125506e+01,-9.638931657822006116e+01,-7.219655351670625976e+01
-6.594389280610954529e+01,-4.198908618910678570e+01,2.395480661700186786e+01,5.389460132333506692e+01,-4.745924165515559423e+01,-1.153334649285510949e+01,-1.856819215785507282e+01,-8.966933062217300687e+01,-7.151990676982893547e+01,-1.102539312457333409e+02,-1.036421882078188759e+02,-8.413007022183298034e+01
-5.177299879902820834e+01,-3.202856334863484022e+01,1.974443545039268599e+01,4.427298104844039273e+01,-3.827769785928096979e+01,-6.236103223443810961e+00,-2.466057222737136456e+01,-8.885243686327497414e+01,-7.536819702179694502e+01,-1.059182841882248027e+02,-1.073956681937710442e+02,-1.169633495091633790e+02
-5.121680869419925841e+01,-5.219989818638424595e+01,-9.830894921851776047e-01,5.411027071677203537e+01,-2.761474741002118449e+01,-2.666748773917218784e+01,-4.041754603815252267e+01,-1.022992648387773471e+02,-9.003602847743702853e+01,-1.235013379202372477e+02,-1.324935124470615904e+02,-8.337663075643079935e+01
-1.014705226163909124e+00,-3.884170957409793346e+01,-3.782700434793364508e+01,1.993449057079932629e+01,1.839118555593077886e+01,-3.836277789577292907e+01,-4.590668445569835399e+01,-1.091078260576571779e+02,-9.902954442893498310e+01,-1.375168325827670799e+02,-1.445354311382821493e+02,-1.295699913912700083e+02
1.052547237078601938e+01,-2.562288457046205536e+01,-3.614835694124727183e+01,1.003712704598872918e+01,2.093013158093351933e+01,-3.085501712581671185e+01,-4.578072076216334096e+01,-1.134335507801449836e+02,-1.007804426557320738e+02,-1.414893527203550150e+02,-1.475544612353505727e+02,-1.082987764017305352e+02
-3.185384338817071992e+01,-5.589589923218531453e+01,-2.404205584401367446e+01,4.394737736452778876e+01,-6.278178556314679248e+00,-4.233083852525314938e+01,-4.496166921903687808e+01,-1.057190077157765842e+02,-9.460166959493699324e+01,-1.436689373101160356e+02,-1.452885830996881111e+02,-9.157881357490690277e+01
-7.503509900426278989e+01,-6.092868525815727310e+01,1.410641374610618826e+01,6.805105776037986232e+01,-4.449529671356702210e+01,-2.331558394712152094e+01,-1.934605331142355311e+01,-8.701849799281318099e+01,-7.119548757014551654e+01,-1.139227991989021831e+02,-1.367338273929519232e+02,-9.785622761072586684e+01
-7.538596920054182249e+01,-6.014635237789350697e+01,1.523961682264849138e+01,6.780554945147383705e+01,-4.525833068289876593e+01,-2.237702457628748576e+01,-2.305906882614892695e+01,-8.324822034644576263e+01,-7.105215209300949653e+01,-1.158300675946109521e+02,-1.360515869824303650e+02,-5.338314396342903478e+01
-6.207517752740716332e+01,-7.334028026234004471e+01,-1.126510273493328285e+01,6.770225476628878880e+01,-2.783190142292502145e+01,-4.471492383577150775e+01,-3.213844097151898183e+01,-9.094583912127191638e+01,-8.631600149106395747e+01,-1.407332027794655005e+02,-1.483619550679270560e+02,-1.242764129646043898e+02
-1.998626762288962766e+01,-5.713665832366034891e+01,-3.715039070077158101e+01,3.851316277846861169e+01,8.549263223335117345e+00,-4.717542810005720355e+01,-3.220939635656864652e+01,-9.137758944549239004e+01,-7.958218195815808826e+01,-1.414894107206862941e+02,-1.501399439685388870e+02,-1.308565660838848146e+02
-2.165549296548512714e+01,-5.118721871782684474e+01,-2.953172575234271235e+01,3.878890003460193014e+01,1.432366358718317301e+00,-4.043891557767412337e+01,-4.277770844001944539e+01,-9.415510972586049832e+01,-8.574323175949729148e+01,-1.343137148385185071e+02,-1.523235250158917893e+02,-7.921117196954183726e+01
-3.232216175469856978e+01,-5.105349757574972358e+01,-1.873133582105190698e+01,4.405958139969385456e+01,-9.308936730512506585e+00,-3.498864924261145859e+01,-3.915020720454933212e+01,-9.336519347815055880e+01,-8.482130058969040931e+01,-1.396180233609267987e+02,-1.461851778514746343e+02,-6.800872024959706152e+01
-4.678374799684632990e+01,-5.682894587997507330e+01,-1.004519788312894057e+01,5.420900930814692487e+01,-1.842256299754653526e+01,-3.595314778569308345e+01,-4.037962248544711485e+01,-9.723451342531319597e+01,-8.997190092577402254e+01,-1.377488096405184876e+02,-1.517380285057152776e+02,-7.827773451742118027e+01
-6.510505201261429420e+01,-6.332601372816555596e+01,1.779038284449157015e+00,6.422318216885352626e+01,-3.589464783041228912e+01,-3.324070279962160157e+01,-3.135862360993646192e+01,-8.966363443843681580e+01,-7.971882038191033359e+01,-1.275850164745368005e+02,-1.443434554254755824e+02,-1.196058997347219020e+02
-3.890886572191071480e+01,-3.577551266676520925e+01,3.133353055146380850e+00,3.983097466394004016e+01,-2.342851200371774212e+01,-1.628925359318252930e+01,-1.667673819362731535e+01,-7.957574616520143707e+01,-7.677629577300628227e+01,-1.318352889652555291e+02,-1.328729760700011866e+02,-7.402451972650572998e+01
-3.226429824416398873e+01,-3.693475463746683829e+01,-4.670456393301854803e+00,3.466976210800705616e+01,-1.617215178962143085e+01,-2.316361615296825960e+01,-2.073646055852169923e+01,-8.659888500361152808e+01,-8.037932162432419148e+01,-1.342400597012345429e+02,-1.405236638274235759e+02,-1.062362637119473163e+02
-4.091652012905411340e+01,-5.656557800778678313e+01,-1.564905787873192189e+01,4.880485939232045922e+01,-1.500190234545963364e+01,-3.845121144116778567e+01,-1.944067029430904725e+01,-8.735395973426098237e+01,-8.122669171521791043e+01,-1.485091094025881375e+02,-1.515990149055715221e+02,-1.272889668496625859e+02
-6.527276036138424331e+01,-7.019245215961198880e+01,-4.919691798227521673e+00,6.776496288740385410e+01,-3.012484982818312318e+01,-3.747937780384928885e+01,-1.327837411672945755e+01,-7.363027343245370560e+01,-7.107379161724092853e+01,-1.308377597428812464e+02,-1.460687119335974273e+02,-1.317154654760714720e+02
-9.073085501785649853e+01,-5.865541625762610067e+01,3.207543876022999996e+01,7.712219290624278756e+01,-6.139034346933695474e+01,-1.570158242307058316e+01,-7.618244534628411557e+00,-6.644171939164010610e+01,-6.656229655704777315e+01,-1.360308022184723882e+02,-1.388020804289498358e+02,-1.001454529287669004e+02
-8.765031867378652919e+01,-6.654084987697984843e+01,2.110946879680579258e+01,7.704700300592037365e+01,-5.440974298553482669e+01,-2.274620333635855829e+01,-7.644191481065345073e+00,-6.178711215501463982e+01,-6.942326922012051682e+01,-1.365296963505774386e+02,-1.404500104179134610e+02,-1.066205608585403297e+02
-7.978785945307484440e+01,-8.969889355822434140e+01,-9.911034105150520190e+00,8.711733060101768444e+01,-3.743924467262117162e+01,-4.988254223310708824e+01,-2.311981175773785679e+01,-7.911920680617787127e+01,-8.533579140708971522e+01,-1.437650211006281324e+02,-1.619977535111310090e+02,-1.035744175575148631e+02
-6.156762070664461817e+01,-1.042405262692475532e+02,-4.267290556260370238e+01,8.284693429255544572e+01,-9.516616299852479699e+00,-7.355162044502108643e+01,-3.422239182566230653e+01,-9.304422817784171684e+01,-9.921087266146734862e+01,-1.587190534005904681e+02,-1.801414884829818845e+02,-1.068089190272376214e+02
-6.666099586594810944e+01,-1.200037951873078157e+02,-5.334279932135994784e+01,9.330596467192583532e+01,-9.151421004402724435e+00,-8.918982632841010627e+01,-4.044891270072490386e+01,-1.068852041503937329e+02,-1.143864692454582581e+02,-1.813051800536896394e+02,-1.905426713506346630e+02,-1.462525773822655992e+02
-8.521595155757462692e+01,-1.268269680821132397e+02,-4.161101652453819355e+01,1.084749270336469635e+02,-2.181894539733398730e+01,-8.668916286680270389e+01,-3.152103094742215461e+01,-9.469881680458361473e+01,-1.092818290356160134e+02,-1.664633946187840650e+02,-1.880911263552837909e+02,-1.437048979437787182e+02
-4.925028000053323041e+01,-8.004549839203042438e+01,-3.079521839149620277e+01,6.469493949476029115e+01,-9.202244970697188720e+00,-5.539357122033665348e+01,-7.102256552838664305e+00,-7.993623194197475357e+01,-9.673868206342152121e+01,-1.465775015411438744e+02,-1.718656395673668555e+02,-1.568619932991895780e+02
-6.677020012142800454e+01,-9.109861346486725608e+01,-2.432841334343803297e+01,7.899554215252517508e+01,-2.116303012372748782e+01,-5.763970887116926889e+01,-6.216682755493554424e+00,-8.213440785628525020e+01,-9.543828741379532232e+01,-1.589557194499874697e+02,-1.796467778083298299e+02,-1.405153743762249405e+02
-5.554735066260930409e+01,-1.008996155419121834e+02,-4.535226487930189165e+01,7.827404540398023869e+01,-5.028336372269362364e+00,-7.303218429493645658e+01,-1.455082977779991182e+01,-8.764638571812028545e+01,-9.608073352530129796e+01,-1.684229221606445606e+02,-1.859237349901977439e+02,-1.568838740236529645e+02
-6.493089683386432398e+01,-9.476723145781649293e+01,-2.983633462395176039e+01,8.230967829347582665e+01,-1.993251015917369884e+01,-6.222263710787456858e+01,-1.801300386447282165e+01,-7.855113037297640233e+01,-9.050230053481578807e+01,-1.653094490252139792e+02,-1.901581308983903398e+02,-1.711284139183565571e+02
-1.194859326099585104e+02,-1.170863278578522682e+02,2.399604752105917171e+00,1.207103884081074341e+02,-6.092317086745875088e+01,-5.974844001673916694e+01,-7.396787415730038617e+00,-7.108816148689348324e+01,-8.571221968972665195e+01,-1.556594946107692579e+02,-1.828275235767938227e+02,-1.443335036029768048e+02
-1.359639544016734192e+02,-1.003362253471761534e+02,3.562772905449636340e+01,1.205461688785891425e+02,-8.825900283661493972e+01,-3.237715408467273903e+01,7.197459394033353774e+00,-5.161072665680521254e+01,-6.403867183727005852e+01,-1.363959205897467371e+02,-1.648560771495227186e+02,-1.017802365378543641e+02
-1.283415592905471669e+02,-9.413917139049868865e+01,3.420238790004732721e+01,1.111865446847332635e+02,-8.132939490787082093e+01,-3.004089019326221432e+01,1.113487959896446355e+01,-5.428641272206216684e+01,-6.537703416369200227e+01,-1.385623114325201470e+02,-1.570275397795754202e+02,-1.228725928518822030e+02
-1.299766701171830618e+02,-9.414306081407274007e+01,3.583360930310939096e+01,1.120167106165867068e+02,-8.297508027141164177e+01,-2.924968943856245573e+01,4.764586373712312195e+00,-5.372835327029097385e+01,-6.973524863440783861e+01,-1.339336623173343241e+02,-1.604706613250243095e+02,-1.064076774306855384e+02
-8.655228816017309157e+01,-1.003748060704744063e+02,-1.382251791030167709e+01,9.344632699124743169e+01,-3.886085168689463387e+01,-5.962074179775366645e+01,-6.470446663226134376e+00,-7.271942756000422037e+01,-8.524005934158249431e+01,-1.419656921547924355e+02,-1.757496798022127393e+02,-1.360783662863762231e+02
-9.056644614022417272e+01,-9.281654373652236245e+01,-2.250097596297864655e+00,9.414535506087389649e+01,-4.661948087112129002e+01,-4.757208088779448474e+01,-2.482593005101619621e+00,-6.569428407096316391e+01,-8.042499312388835619e+01,-1.370856457833604054e+02,-1.684793961539188558e+02,-1.483399800047793065e+02
-1.032795494632570126e+02,-9.502694725832834877e+01,8.252602204929555541e+00,9.919179451030230155e+01,-5.818520518732363911e+01,-4.580808664235846095e+01,2.445439672982447021e+00,-6.575759890900178561e+01,-7.777897559927582449e+01,-1.418473222892906449e+02,-1.669996073256905333e+02,-1.373878550622346495e+02
-1.058907967909351555e+02,-8.662345069716731416e+01,1.926734609376894980e+01,9.874501442807658691e+01,-6.496403841528181999e+01,-3.360793943963853536e+01,2.295850120614529999e+01,-5.333137824463221222e+01,-7.152565426942594229e+01,-1.446703437338840956e+02,-1.651318802086613005e+02,-1.506156988986292049e+02
-1.090226841999488272e+02,-1.012204964122976349e+02,7.802187787652091089e+00,1.076008943719346149e+02,-5.834344532854702692e+01,-4.905375721684447399e+01,1.965561082629470491e+01,-5.867267879718451695e+01,-6.702400434490603232e+01,-1.395753585920097350e+02,-1.714780783676814906e+02,-6.466807845554131973e+01
-9.871186005401378338e+01,-9.488871273077290880e+01,3.823147323241146367e+00,9.681691929646481753e+01,-5.364955221685154640e+01,-4.788760924141120512e+01,1.145587494019104469e+01,-6.391872973241193279e+01,-6.596351635895229037e+01,-1.412510276799988560e+02,-1.757056908375261912e+02,-3.980564395827887125e+01
-1.044685964833222300e+02,-9.256512607694773465e+01,1.190347040637406550e+01,1.009453370830700010e+02,-6.060042503608519127e+01,-4.028769015206310655e+01,1.726933427526520859e+01,-6.102411972235895377e+01,-6.573099382421449377e+01,-1.508909134697743184e+02,-1.682889084856725219e+02,-1.542546070378801915e+02
-4.789758508944787962e+01,-9.513547076818950643e+01,-4.723788567874262156e+01,7.148198888364102288e+01,-3.461164287493756486e-01,-7.120129447314997151e+01,-7.203343883486645893e+00,-8.526968960596987301e+01,-8.294700984733573534e+01,-1.606301952444386529e+02,-1.941065994796446148e+02,-1.601700660602891446e+02
-4.048916531227973081e+01,-7.421637124582765921e+01,-3.372720593354912921e+01,5.730847224189551525e+01,-3.432804720697519851e+00,-5.403834293014003265e+01,6.362579255335276684e+00,-7.330851299074589633e+01,-6.485636419325317092e+01,-1.479433232278035177e+02,-1.666392211810724859e+02,-1.468789735329444852e+02
-8.623811943937946012e+01,-3.524182358112052071e+01,5.099629585825800149e+01,6.314247590158186796e+01,-6.868514273429552475e+01,5.343250167903839554e+00,3.397039381645283385e+01,-4.366933215495260612e+01,-4.023115273340401643e+01,-1.042003214306592440e+02,-1.358566494016984905e+02,-8.157393024418236394e+01
-2.341219400531219819e+01,-3.188807177744037347e+01,-8.475877772128480814e+00,3.007365049246040911e+01,-9.967447063969395060e+00,-2.026919665591900710e+01,1.282590380343912884e+01,-6.784793429215272909e+01,-6.587698678317502754e+01,-1.269568866689818947e+02,-1.511388845880760528e+02,-1.162543400014022126e+02
-8.600471934976403077e+01,-6.847977134185370574e+01,1.752494800791080465e+01,7.969299525538538376e+01,-5.179440293595976641e+01,-2.796611405039841713e+01,2.164027254241853626e+01,-6.111789762883316968e+01,-5.650036335901621953e+01,-1.271730959319942826e+02,-1.585825928298994256e+02,-7.993993035839977779e+01
-9.864781056099438672e+01,-8.067133657858633455e+01,1.797647398240914995e+01,8.969290220644339229e+01,-5.830150586866242435e+01,-3.133981989242447241e+01,2.175100447192370368e+01,-6.623428267176228701e+01,-6.375074166192571568e+01,-1.322120273002328474e+02,-1.572315043910342922e+02,-9.360497593990395160e+01
-5.720432075195581234e+01,-6.264968948236226964e+01,-5.445368730405162339e+00,5.996910339988986749e+01,-2.583242783657782837e+01,-3.398598406395576887e+01,1.801220752862552033e+01,-6.843996862880985077e+01,-6.228301697765271427e+01,-1.401566576322018989e+02,-1.506271658509880922e+02,-2.887792919485984200e+01
-5.528182272392366059e+01,-4.796765522432147577e+01,7.314167499603190237e+00,5.409885875395434596e+01,-3.367179923783101003e+01,-2.023311296035554108e+01,3.439767114104535040e+01,-5.408059226606057024e+01,-3.797223901271190982e+01,-1.302994771883463159e+02,-1.375571052337434992e+02,-3.565267196127383187e+01
